time,voltage,lowess
0.005,0.0,0.16999999999999998
0.01,0.17,0.17000000000000018
0.015,0.17,0.16999999999999996
0.02,0.17,0.16999999999999993
0.025,0.17,0.1700000000000001
0.030000000000000002,0.17,0.17
0.035,0.17,0.16999999999999993
0.04,0.17,0.17000000000000004
0.045,0.17,0.16999999999999998
0.049999999999999996,0.17,0.17000000000000004
0.05499999999999999,0.17,0.17
0.05999999999999999,0.17,0.17
0.06499999999999999,0.17,0.17
0.06999999999999999,0.17,0.1700000000000001
0.075,0.17,0.1700000000000001
0.08,0.17,0.16999999999999998
0.085,0.17,0.17000000000000004
0.09000000000000001,0.17,0.17000000000000037
0.09500000000000001,0.17,0.17000000000000018
0.10000000000000002,0.17,0.1700000000000002
0.10500000000000002,0.17,0.17000000000000123
0.11000000000000003,0.17,0.16999999999999887
0.11500000000000003,0.17,0.16999999999999718
0.12000000000000004,0.17,0.17000000000000448
0.12500000000000003,0.17,0.17000000000001364
0.13000000000000003,0.17,0.17
0.13500000000000004,0.18,0.18
0.14000000000000004,0.18,0.18
0.14500000000000005,0.18,0.18
0.15000000000000005,0.18,0.18
0.15500000000000005,0.18,0.18
0.16000000000000006,0.18,0.18
0.16500000000000006,0.18,0.18
0.17000000000000007,0.18,0.18
0.17500000000000007,0.18,0.18
0.18000000000000008,0.17,0.17
0.18500000000000008,0.17,0.17
0.19000000000000009,0.17,0.17
0.1950000000000001,0.17,0.17000000000000612
0.2000000000000001,0.17,0.1699999999999954
0.2050000000000001,0.17,0.16999999999999987
0.2100000000000001,0.17,0.17
0.2150000000000001,0.17,0.16999999999999932
0.2200000000000001,0.17,0.16999999999999998
0.22500000000000012,0.17,0.16999999999999854
0.23000000000000012,0.18,0.17000000000000123
0.23500000000000013,0.18,0.17000000000000073
0.24000000000000013,0.17,0.16999999999999968
0.24500000000000013,0.17,0.17
0.2500000000000001,0.17,0.17000000000000004
0.2550000000000001,0.17,0.17000000000000018
0.2600000000000001,0.17,0.16999999999999998
0.2650000000000001,0.17,0.17
0.27000000000000013,0.17,0.17000000000000004
0.27500000000000013,0.17,0.17000000000000004
0.28000000000000014,0.18,0.17000000000000007
0.28500000000000014,0.18,0.17000000000000004
0.29000000000000015,0.17,0.17
0.29500000000000015,0.17,0.16999999999999998
0.30000000000000016,0.17,0.16999999999999998
0.30500000000000016,0.17,0.17000000000000004
0.31000000000000016,0.17,0.16999999999999998
0.31500000000000017,0.17,0.17000000000000007
0.3200000000000002,0.18,0.17000000000000004
0.3250000000000002,0.18,0.17000000000000004
0.3300000000000002,0.17,0.17
0.3350000000000002,0.17,0.1700000000000001
0.3400000000000002,0.17,0.17000000000000007
0.3450000000000002,0.17,0.17
0.3500000000000002,0.17,0.16999999999999998
0.3550000000000002,0.17,0.17000000000000004
0.3600000000000002,0.17,0.17
0.3650000000000002,0.17,0.17000000000000007
0.3700000000000002,0.18,0.16999999999999996
0.3750000000000002,0.18,0.16999999999999998
0.3800000000000002,0.17,0.17000000000000004
0.38500000000000023,0.17,0.16999999999999998
0.39000000000000024,0.17,0.16999999999999998
0.39500000000000024,0.17,0.17000000000000004
0.40000000000000024,0.17,0.16999999999999998
0.40500000000000025,0.17,0.16999999999999998
0.41000000000000025,0.17,0.17
0.41500000000000026,0.17,0.16999999999999998
0.42000000000000026,0.18,0.17
0.42500000000000027,0.18,0.16999999999999996
0.43000000000000027,0.17,0.16999999999999998
0.4350000000000003,0.17,0.16999999999999998
0.4400000000000003,0.17,0.16999999999999998
0.4450000000000003,0.17,0.17
0.4500000000000003,0.17,0.16999999999999996
0.4550000000000003,0.17,0.17000000000000007
0.4600000000000003,0.17,0.16999999999999998
0.4650000000000003,0.17,0.17
0.4700000000000003,0.18,0.17
0.4750000000000003,0.18,0.16999999999999998
0.4800000000000003,0.17,0.17000000000000007
0.4850000000000003,0.17,0.17
0.4900000000000003,0.17,0.16999999999999993
0.49500000000000033,0.17,0.17
0.5000000000000003,0.17,0.16999999999999998
0.5050000000000003,0.17,0.16999999999999998
0.5100000000000003,0.17,0.16999999999999996
0.5150000000000003,0.17,0.17
0.5200000000000004,0.18,0.17
0.5250000000000004,0.18,0.17000000000000004
0.5300000000000004,0.17,0.16999999999999998
0.5350000000000004,0.17,0.17000000000000007
0.5400000000000004,0.17,0.17000000000000004
0.5450000000000004,0.17,0.17
0.5500000000000004,0.17,0.16999999999999998
0.5550000000000004,0.17,0.16999999999999998
0.5600000000000004,0.18,0.17000000000000007
0.5650000000000004,0.18,0.1699999999999999
0.5700000000000004,0.17,0.17000000000000007
0.5750000000000004,0.17,0.17000000000000007
0.5800000000000004,0.17,0.17000000000000004
0.5850000000000004,0.17,0.17000000000000004
0.5900000000000004,0.17,0.17
0.5950000000000004,0.17,0.17000000000000007
0.6000000000000004,0.17,0.17000000000000004
0.6050000000000004,0.17,0.17000000000000004
0.6100000000000004,0.18,0.17
0.6150000000000004,0.18,0.16999999999999998
0.6200000000000004,0.17,0.17000000000000004
0.6250000000000004,0.17,0.16999999999999996
0.6300000000000004,0.17,0.1700000000000001
0.6350000000000005,0.17,0.17
0.6400000000000005,0.17,0.17
0.6450000000000005,0.17,0.16999999999999998
0.6500000000000005,0.17,0.17000000000000004
0.6550000000000005,0.17,0.17000000000000007
0.6600000000000005,0.18,0.17000000000000004
0.6650000000000005,0.18,0.16999999999999993
0.6700000000000005,0.17,0.17000000000000004
0.6750000000000005,0.17,0.16999999999999998
0.6800000000000005,0.17,0.16999999999999993
0.6850000000000005,0.17,0.17
0.6900000000000005,0.17,0.17000000000000004
0.6950000000000005,0.17,0.17000000000000004
0.7000000000000005,0.17,0.1700000000000001
0.7050000000000005,0.17,0.17
0.7100000000000005,0.18,0.17
0.7150000000000005,0.18,0.17000000000000004
0.7200000000000005,0.17,0.17000000000000004
0.7250000000000005,0.17,0.17000000000000004
0.7300000000000005,0.17,0.16999999999999998
0.7350000000000005,0.17,0.17
0.7400000000000005,0.17,0.17
0.7450000000000006,0.17,0.17000000000000004
0.7500000000000006,0.17,0.17000000000000004
0.7550000000000006,0.17,0.17
0.7600000000000006,0.18,0.17
0.7650000000000006,0.18,0.17
0.7700000000000006,0.17,0.17000000000000007
0.7750000000000006,0.17,0.16999999999999996
0.7800000000000006,0.17,0.16999999999999998
0.7850000000000006,0.17,0.16999999999999998
0.7900000000000006,0.17,0.17000000000000007
0.7950000000000006,0.17,0.16999999999999996
0.8000000000000006,0.17,0.17000000000000004
0.8050000000000006,0.17,0.17000000000000004
0.8100000000000006,0.18,0.17000000000000007
0.8150000000000006,0.18,0.16999999999999985
0.8200000000000006,0.17,0.16999999999999993
0.8250000000000006,0.17,0.17000000000000004
0.8300000000000006,0.17,0.17000000000000046
0.8350000000000006,0.17,0.1700000000000002
0.8400000000000006,0.17,0.17000000000000035
0.8450000000000006,0.17,0.16999999999999993
0.8500000000000006,0.18,0.16999999999999993
0.8550000000000006,0.18,0.16999999999999998
0.8600000000000007,0.18,0.17000000000000004
0.8650000000000007,0.18,0.17
0.8700000000000007,0.17,0.16999999999999987
0.8750000000000007,0.17,0.17000000000000018
0.8800000000000007,0.17,0.1700000000000003
0.8850000000000007,0.17,0.1700000000000006
0.8900000000000007,0.17,0.16999999999999998
0.8950000000000007,0.17,0.16999999999999985
0.9000000000000007,0.18,0.16999999999999998
0.9050000000000007,0.18,0.16999999999999973
0.9100000000000007,0.17,0.1699999999999997
0.9150000000000007,0.17,0.16999999999999982
0.9200000000000007,0.17,0.17000000000000004
0.9250000000000007,0.17,0.16999999999999996
0.9300000000000007,0.17,0.17000000000000004
0.9350000000000007,0.17,0.17000000000000007
0.9400000000000007,0.17,0.1700000000000001
0.9450000000000007,0.17,0.1699999999999999
0.9500000000000007,0.18,0.17
0.9550000000000007,0.18,0.17000000000000007
0.9600000000000007,0.17,0.17
0.9650000000000007,0.17,0.16999999999999998
0.9700000000000008,0.17,0.17000000000000018
0.9750000000000008,0.17,0.16999999999999996
0.9800000000000008,0.17,0.17
0.9850000000000008,0.17,0.17000000000000007
0.9900000000000008,0.17,0.17
0.9950000000000008,0.17,0.17000000000000004
1.0000000000000007,0.18,0.16999999999999998
1.0050000000000006,0.18,0.17000000000000004
1.0100000000000005,0.17,0.17000000000000007
1.0150000000000003,0.17,0.1700000000000001
1.0200000000000002,0.17,0.17000000000000015
1.0250000000000001,0.17,0.17000000000000007
1.03,0.17,0.16999999999999998
1.035,0.17,0.17000000000000004
1.0399999999999998,0.17,0.16999999999999993
1.0449999999999997,0.17,0.16999999999999996
1.0499999999999996,0.18,0.17
1.0549999999999995,0.18,0.17
1.0599999999999994,0.17,0.17
1.0649999999999993,0.17,0.16999999999999993
1.0699999999999992,0.17,0.17
1.074999999999999,0.17,0.1700000000000001
1.079999999999999,0.17,0.17
1.0849999999999989,0.17,0.17
1.0899999999999987,0.18,0.16999999999999996
1.0949999999999986,0.18,0.17000000000000007
1.0999999999999985,0.17,0.17000000000000004
1.1049999999999984,0.17,0.17000000000000004
1.1099999999999983,0.17,0.16999999999999993
1.1149999999999982,0.17,0.17
1.119999999999998,0.17,0.17
1.124999999999998,0.17,0.17000000000000007
1.129999999999998,0.17,0.17000000000000004
1.1349999999999978,0.17,0.16999999999999996
1.1399999999999977,0.18,0.16999999999999996
1.1449999999999976,0.18,0.16999999999999998
1.1499999999999975,0.17,0.16999999999999998
1.1549999999999974,0.17,0.16999999999999987
1.1599999999999973,0.17,0.1700000000000001
1.1649999999999971,0.17,0.17000000000000004
1.169999999999997,0.17,0.16999999999999998
1.174999999999997,0.17,0.17
1.1799999999999968,0.17,0.1699999999999999
1.1849999999999967,0.17,0.17
1.1899999999999966,0.18,0.17000000000000004
1.1949999999999965,0.18,0.16999999999999993
1.1999999999999964,0.17,0.17
1.2049999999999963,0.17,0.17000000000000012
1.2099999999999962,0.17,0.16999999999999996
1.214999999999996,0.17,0.17000000000000007
1.219999999999996,0.17,0.16999999999999993
1.2249999999999959,0.17,0.17
1.2299999999999958,0.17,0.1699999999999999
1.2349999999999957,0.17,0.17000000000000007
1.2399999999999956,0.18,0.17000000000000007
1.2449999999999954,0.18,0.17000000000000007
1.2499999999999953,0.17,0.17
1.2549999999999952,0.17,0.16999999999999987
1.2599999999999951,0.17,0.17000000000000004
1.264999999999995,0.17,0.1700000000000001
1.269999999999995,0.17,0.16999999999999998
1.2749999999999948,0.17,0.1699999999999999
1.2799999999999947,0.17,0.16999999999999996
1.2849999999999946,0.17,0.17000000000000004
1.2899999999999945,0.18,0.17000000000000004
1.2949999999999944,0.18,0.16999999999999993
1.2999999999999943,0.17,0.16999999999999996
1.3049999999999942,0.17,0.16999999999999996
1.309999999999994,0.17,0.16999999999999982
1.314999999999994,0.17,0.16999999999999998
1.3199999999999938,0.17,0.17
1.3249999999999937,0.17,0.16999999999999998
1.3299999999999936,0.17,0.16999999999999998
1.3349999999999935,0.17,0.17000000000000018
1.3399999999999934,0.18,0.17000000000000007
1.3449999999999933,0.18,0.16999999999999993
1.3499999999999932,0.17,0.1700000000000001
1.354999999999993,0.17,0.16999999999999996
1.359999999999993,0.17,0.16999999999999998
1.3649999999999929,0.17,0.17000000000000004
1.3699999999999928,0.17,0.17000000000000007
1.3749999999999927,0.17,0.16999999999999976
1.3799999999999926,0.18,0.17
1.3849999999999925,0.18,0.16999999999999996
1.3899999999999924,0.17,0.16999999999999973
1.3949999999999922,0.17,0.16999999999999987
1.3999999999999921,0.17,0.17
1.404999999999992,0.17,0.16999999999999998
1.409999999999992,0.17,0.17
1.4149999999999918,0.17,0.17
1.4199999999999917,0.17,0.16999999999999987
1.4249999999999916,0.17,0.16999999999999996
1.4299999999999915,0.18,0.16999999999999996
1.4349999999999914,0.18,0.16999999999999998
1.4399999999999913,0.17,0.17000000000000004
1.4449999999999912,0.17,0.17000000000000023
1.449999999999991,0.17,0.16999999999999987
1.454999999999991,0.17,0.16999999999999996
1.4599999999999909,0.17,0.17000000000000004
1.4649999999999908,0.17,0.16999999999999987
1.4699999999999906,0.17,0.16999999999999982
1.4749999999999905,0.17,0.1700000000000002
1.4799999999999904,0.18,0.17
1.4849999999999903,0.18,0.1700000000000001
1.4899999999999902,0.17,0.16999999999999998
1.4949999999999901,0.17,0.16999999999999996
1.49999999999999,0.17,0.16999999999999996
1.50499999999999,0.17,0.17
1.5099999999999898,0.17,0.16999999999999998
1.5149999999999897,0.17,0.17
1.5199999999999896,0.17,0.1700000000000003
1.5249999999999895,0.17,0.17
1.5299999999999894,0.18,0.16999999999999996
1.5349999999999893,0.18,0.16999999999999993
1.5399999999999892,0.17,0.17
1.544999999999989,0.17,0.17000000000000026
1.549999999999989,0.17,0.17000000000000018
1.5549999999999888,0.17,0.16999999999999996
1.5599999999999887,0.17,0.16999999999999998
1.5649999999999886,0.17,0.17000000000000004
1.5699999999999885,0.17,0.17000000000000012
1.5749999999999884,0.17,0.1700000000000001
1.5799999999999883,0.18,0.17000000000000012
1.5849999999999882,0.18,0.16999999999999993
1.589999999999988,0.17,0.16999999999999996
1.594999999999988,0.17,0.1699999999999999
1.5999999999999879,0.17,0.17
1.6049999999999878,0.17,0.16999999999999996
1.6099999999999877,0.17,0.16999999999999998
1.6149999999999876,0.17,0.17000000000000004
1.6199999999999875,0.18,0.1700000000000001
1.6249999999999873,0.18,0.16999999999999993
1.6299999999999872,0.17,0.17
1.6349999999999871,0.17,0.1700000000000001
1.639999999999987,0.17,0.16999999999999965
1.644999999999987,0.17,0.17000000000000065
1.6499999999999868,0.17,0.17000000000000126
1.6549999999999867,0.17,0.1700000000000002
1.6599999999999866,0.17,0.17000000000000065
1.6649999999999865,0.17,0.16999999999999957
1.6699999999999864,0.18,0.16999999999999962
1.6749999999999863,0.18,0.16999999999999943
1.6799999999999862,0.18,0.16999999999999993
1.684999999999986,0.18,0.1700000000000004
1.689999999999986,0.17,0.17000000000000004
1.6949999999999859,0.17,0.16999999999999982
1.6999999999999857,0.17,0.17000000000000184
1.7049999999999856,0.17,0.16999999999999996
1.7099999999999855,0.17,0.16999999999999996
1.7149999999999854,0.17,0.16999999999999996
1.7199999999999853,0.17,0.16999999999999987
1.7249999999999852,0.17,0.17000000000000026
1.729999999999985,0.18,0.1699999999999994
1.734999999999985,0.18,0.1699999999999997
1.739999999999985,0.17,0.1699999999999998
1.7449999999999848,0.17,0.16999999999999998
1.7499999999999847,0.17,0.17000000000000004
1.7549999999999846,0.17,0.17000000000000007
1.7599999999999845,0.17,0.16999999999999998
1.7649999999999844,0.17,0.1700000000000001
1.7699999999999843,0.17,0.17
1.7749999999999841,0.17,0.16999999999999996
1.779999999999984,0.18,0.16999999999999993
1.784999999999984,0.18,0.16999999999999985
1.7899999999999838,0.17,0.17000000000000012
1.7949999999999837,0.17,0.1700000000000001
1.7999999999999836,0.17,0.16999999999999998
1.8049999999999835,0.17,0.17000000000000004
1.8099999999999834,0.17,0.17000000000000026
1.8149999999999833,0.17,0.1699999999999997
1.8199999999999832,0.18,0.16999999999999993
1.824999999999983,0.18,0.17000000000000004
1.829999999999983,0.17,0.1700000000000001
1.8349999999999829,0.17,0.16999999999999973
1.8399999999999828,0.17,0.16999999999999998
1.8449999999999827,0.17,0.16999999999999996
1.8499999999999825,0.17,0.17
1.8549999999999824,0.17,0.17000000000000004
1.8599999999999823,0.17,0.16999999999999987
1.8649999999999822,0.17,0.17000000000000018
1.8699999999999821,0.18,0.16999999999999998
1.874999999999982,0.18,0.17000000000000004
1.879999999999982,0.17,0.16999999999999982
1.8849999999999818,0.17,0.16999999999999993
1.8899999999999817,0.17,0.16999999999999998
1.8949999999999816,0.17,0.17000000000000004
1.8999999999999815,0.17,0.17
1.9049999999999814,0.17,0.17
1.9099999999999813,0.17,0.16999999999999996
1.9149999999999812,0.17,0.17000000000000012
1.919999999999981,0.18,0.1699999999999999
1.924999999999981,0.18,0.17
1.9299999999999808,0.17,0.16999999999999985
1.9349999999999807,0.17,0.16999999999999987
1.9399999999999806,0.17,0.1699999999999998
1.9449999999999805,0.17,0.17000000000000012
1.9499999999999804,0.17,0.17000000000000004
1.9549999999999803,0.17,0.17000000000000018
1.9599999999999802,0.17,0.16999999999999987
1.96499999999998,0.17,0.17000000000000015
1.96999999999998,0.18,0.16999999999999998
1.9749999999999799,0.18,0.17
1.9799999999999798,0.17,0.16999999999999993
1.9849999999999797,0.17,0.17000000000000018
1.9899999999999796,0.17,0.1700000000000002
1.9949999999999795,0.17,0.17000000000000004
1.9999999999999793,0.17,0.17
2.0049999999999795,0.17,0.16999999999999993
2.0099999999999794,0.17,0.16999999999999985
2.0149999999999793,0.17,0.16999999999999996
2.019999999999979,0.18,0.17000000000000004
2.024999999999979,0.18,0.1700000000000001
2.029999999999979,0.17,0.16999999999999996
2.034999999999979,0.17,0.17000000000000018
2.0399999999999787,0.17,0.16999999999999987
2.0449999999999786,0.17,0.1699999999999998
2.0499999999999785,0.17,0.16999999999999998
2.0549999999999784,0.17,0.16999999999999996
2.0599999999999783,0.17,0.16999999999999982
2.064999999999978,0.17,0.17
2.069999999999978,0.18,0.17
2.074999999999978,0.18,0.16999999999999993
2.079999999999978,0.17,0.17000000000000015
2.0849999999999778,0.17,0.16999999999999998
2.0899999999999777,0.17,0.17000000000000015
2.0949999999999775,0.17,0.16999999999999998
2.0999999999999774,0.17,0.16999999999999998
2.1049999999999773,0.17,0.16999999999999996
2.1099999999999772,0.17,0.17000000000000015
2.114999999999977,0.17,0.17000000000000007
2.119999999999977,0.18,0.17
2.124999999999977,0.18,0.17
2.129999999999977,0.17,0.16999999999999996
2.1349999999999767,0.17,0.17000000000000004
2.1399999999999766,0.17,0.17000000000000012
2.1449999999999765,0.17,0.1699999999999985
2.1499999999999764,0.17,0.1700000000000003
2.1549999999999763,0.17,0.16999999999999957
2.159999999999976,0.17,0.17000000000000037
2.164999999999976,0.17,0.16999999999999937
2.169999999999976,0.18,0.1699999999999989
2.174999999999976,0.18,0.1700000000000006
2.1799999999999757,0.18,0.17000000000000007
2.1849999999999756,0.18,0.17000000000000007
2.1899999999999755,0.17,0.1699999999999999
2.1949999999999754,0.17,0.17000000000000154
2.1999999999999753,0.17,0.16999999999999832
2.204999999999975,0.17,0.1699999999999999
2.209999999999975,0.17,0.17000000000000032
2.214999999999975,0.17,0.1700000000000003
2.219999999999975,0.18,0.17000000000000093
2.2249999999999748,0.18,0.17000000000000043
2.2299999999999747,0.17,0.1700000000000005
2.2349999999999746,0.17,0.1699999999999991
2.2399999999999745,0.17,0.1699999999999994
2.2449999999999743,0.17,0.16999999999999968
2.2499999999999742,0.17,0.16999999999999985
2.254999999999974,0.17,0.16999999999999996
2.259999999999974,0.17,0.17000000000000007
2.264999999999974,0.17,0.17000000000000018
2.269999999999974,0.18,0.16999999999999998
2.2749999999999737,0.18,0.17000000000000004
2.2799999999999736,0.17,0.17000000000000012
2.2849999999999735,0.17,0.17000000000000007
2.2899999999999734,0.17,0.17000000000000004
2.2949999999999733,0.17,0.17000000000000004
2.299999999999973,0.17,0.16999999999999998
2.304999999999973,0.17,0.17
2.309999999999973,0.17,0.17000000000000018
2.314999999999973,0.17,0.1700000000000002
2.3199999999999728,0.18,0.16999999999999998
2.3249999999999726,0.18,0.16999999999999998
2.3299999999999725,0.17,0.17
2.3349999999999724,0.17,0.16999999999999976
2.3399999999999723,0.17,0.17000000000000015
2.344999999999972,0.17,0.16999999999999998
2.349999999999972,0.17,0.17000000000000012
2.354999999999972,0.17,0.16999999999999998
2.359999999999972,0.17,0.1700000000000003
2.364999999999972,0.17,0.17000000000000046
2.3699999999999717,0.18,0.1700000000000003
2.3749999999999716,0.18,0.17000000000000007
2.3799999999999715,0.17,0.17
2.3849999999999714,0.17,0.16999999999999998
2.3899999999999713,0.17,0.17000000000000018
2.394999999999971,0.17,0.17000000000000004
2.399999999999971,0.17,0.16999999999999993
2.404999999999971,0.17,0.17000000000000004
2.409999999999971,0.18,0.1700000000000001
2.4149999999999707,0.18,0.17
2.4199999999999706,0.17,0.1699999999999999
2.4249999999999705,0.17,0.1699999999999996
2.4299999999999704,0.17,0.17000000000000035
2.4349999999999703,0.17,0.17000000000000043
2.43999999999997,0.17,0.1699999999999992
2.44499999999997,0.17,0.16999999999999965
2.44999999999997,0.17,0.1700000000000001
2.45499999999997,0.17,0.1700000000000006
2.4599999999999698,0.17,0.17000000000000004
2.4649999999999697,0.17,0.1700000000000002
2.4699999999999696,0.17,0.1699999999999988
2.4749999999999694,0.17,0.1699999999999999
2.4799999999999693,0.18,0.17000000000000037
2.4849999999999692,0.18,0.17000000000000035
2.489999999999969,0.17,0.17000000000000018
2.494999999999969,0.17,0.16999999999999862
2.499999999999969,0.17,0.17000000000000023
2.504999999999969,0.17,0.1700000000000011
2.5099999999999687,0.17,0.16999999999999899
2.5149999999999686,0.17,0.16999999999999985
2.5199999999999685,0.18,0.16999999999999948
2.5249999999999684,0.18,0.16999999999999982
2.5299999999999683,0.18,0.17000000000000004
2.534999999999968,0.18,0.16999999999999982
2.539999999999968,0.17,0.1699999999999999
2.544999999999968,0.17,0.16999999999999965
2.549999999999968,0.17,0.16999999999999973
2.5549999999999677,0.17,0.16999999999999965
2.5599999999999676,0.17,0.17000000000000084
2.5649999999999675,0.17,0.16999999999999882
2.5699999999999674,0.18,0.1700000000000011
2.5749999999999673,0.18,0.17000000000000165
2.579999999999967,0.17,0.1700000000000012
2.584999999999967,0.17,0.1699999999999999
2.589999999999967,0.17,0.1700000000000004
2.594999999999967,0.17,0.1699999999999999
2.599999999999967,0.17,0.16999999999999976
2.6049999999999667,0.17,0.17000000000000023
2.6099999999999666,0.17,0.16999999999999998
2.6149999999999665,0.17,0.1700000000000001
2.6199999999999664,0.18,0.17000000000000004
2.6249999999999662,0.18,0.17000000000000007
2.629999999999966,0.17,0.17000000000000023
2.634999999999966,0.17,0.1700000000000003
2.639999999999966,0.17,0.16999999999999985
2.644999999999966,0.17,0.16999999999999998
2.6499999999999657,0.17,0.17000000000000004
2.6549999999999656,0.17,0.17000000000000007
2.6599999999999655,0.17,0.17000000000000018
2.6649999999999654,0.17,0.17000000000000023
2.6699999999999653,0.18,0.17
2.674999999999965,0.18,0.16999999999999998
2.679999999999965,0.17,0.17
2.684999999999965,0.17,0.17000000000000015
2.689999999999965,0.17,0.16999999999999998
2.6949999999999648,0.17,0.16999999999999998
2.6999999999999647,0.17,0.17000000000000023
2.7049999999999645,0.17,0.16999999999999976
2.7099999999999644,0.17,0.17000000000000043
2.7149999999999643,0.17,0.1700000000000001
2.7199999999999642,0.18,0.17000000000000004
2.724999999999964,0.18,0.16999999999999968
2.729999999999964,0.17,0.16999999999999987
2.734999999999964,0.17,0.17000000000000004
2.739999999999964,0.17,0.16999999999999996
2.7449999999999637,0.17,0.16999999999999996
2.7499999999999636,0.17,0.17000000000000026
2.7549999999999635,0.17,0.16999999999999965
2.7599999999999634,0.18,0.1700000000000002
2.7649999999999633,0.18,0.16999999999999976
2.769999999999963,0.17,0.16999999999999965
2.774999999999963,0.17,0.16999999999999985
2.779999999999963,0.17,0.16999999999999987
2.784999999999963,0.17,0.17
2.7899999999999627,0.17,0.17000000000000004
2.7949999999999626,0.17,0.17000000000000026
2.7999999999999625,0.17,0.17000000000000004
2.8049999999999624,0.17,0.16999999999999998
2.8099999999999623,0.18,0.17000000000000007
2.814999999999962,0.18,0.16999999999999982
2.819999999999962,0.17,0.17
2.824999999999962,0.17,0.17000000000000007
2.829999999999962,0.17,0.17000000000000004
2.8349999999999618,0.17,0.17000000000000004
2.8399999999999617,0.17,0.17
2.8449999999999616,0.17,0.16999999999999973
2.8499999999999615,0.17,0.1700000000000003
2.8549999999999613,0.17,0.1699999999999999
2.8599999999999612,0.18,0.1700000000000001
2.864999999999961,0.18,0.1699999999999999
2.869999999999961,0.17,0.16999999999999965
2.874999999999961,0.17,0.17000000000000023
2.879999999999961,0.17,0.1700000000000001
2.8849999999999607,0.17,0.17000000000000007
2.8899999999999606,0.17,0.17
2.8949999999999605,0.17,0.1700000000000003
2.8999999999999604,0.17,0.16999999999999985
2.9049999999999603,0.17,0.16999999999999998
2.90999999999996,0.18,0.16999999999999998
2.91499999999996,0.18,0.17000000000000004
2.91999999999996,0.17,0.17000000000000015
2.92499999999996,0.17,0.16999999999999973
2.9299999999999597,0.17,0.1700000000000001
2.9349999999999596,0.17,0.16999999999999998
2.9399999999999595,0.17,0.16999999999999996
2.9449999999999594,0.17,0.17000000000000035
2.9499999999999593,0.17,0.1699999999999997
2.954999999999959,0.17,0.1700000000000002
2.959999999999959,0.18,0.17
2.964999999999959,0.18,0.1700000000000001
2.969999999999959,0.17,0.17000000000000004
2.974999999999959,0.17,0.17000000000000004
2.9799999999999587,0.17,0.17000000000000004
2.9849999999999586,0.17,0.16999999999999998
2.9899999999999585,0.17,0.17000000000000007
2.9949999999999584,0.17,0.17
2.9999999999999583,0.17,0.16999999999999962
3.004999999999958,0.17,0.16999999999999962
3.009999999999958,0.18,0.17000000000000015
3.014999999999958,0.18,0.17000000000000007
3.019999999999958,0.17,0.16999999999999996
3.0249999999999577,0.17,0.1700000000000001
3.0299999999999576,0.17,0.16999999999999985
3.0349999999999575,0.17,0.16999999999999993
3.0399999999999574,0.17,0.17
3.0449999999999573,0.17,0.16999999999999996
3.049999999999957,0.17,0.17000000000000015
3.054999999999957,0.17,0.16999999999999998
3.059999999999957,0.18,0.17000000000000037
3.064999999999957,0.18,0.16999999999999973
3.0699999999999568,0.17,0.17000000000000004
3.0749999999999567,0.17,0.17000000000000015
3.0799999999999566,0.17,0.16999999999999982
3.0849999999999564,0.17,0.17000000000000007
3.0899999999999563,0.17,0.17000000000000004
3.0949999999999562,0.17,0.16999999999999998
3.099999999999956,0.18,0.17
3.104999999999956,0.18,0.16999999999999998
3.109999999999956,0.17,0.1699999999999997
3.114999999999956,0.17,0.17000000000000018
3.1199999999999557,0.17,0.16999999999999965
3.1249999999999556,0.17,0.17000000000000004
3.1299999999999555,0.17,0.16999999999999993
3.1349999999999554,0.17,0.17
3.1399999999999553,0.17,0.17000000000000015
3.144999999999955,0.17,0.16999999999999982
3.149999999999955,0.17,0.17000000000000057
3.154999999999955,0.17,0.16999999999999954
3.159999999999955,0.18,0.1699999999999996
3.1649999999999547,0.18,0.1699999999999995
3.1699999999999546,0.17,0.17000000000000154
3.1749999999999545,0.17,0.17000000000000137
3.1799999999999544,0.17,0.17000000000000268
3.1849999999999543,0.17,0.1699999999999953
3.189999999999954,0.17,0.17000000000000362
3.194999999999954,0.17,0.17000000000000678
3.199999999999954,0.17,0.16999999999999746
3.204999999999954,0.17,0.1700000000000005
3.209999999999954,0.18,0.16999999999999876
3.2149999999999537,0.18,0.16999999999999968
3.2199999999999536,0.18,0.17000000000000132
3.2249999999999535,0.18,0.17000000000000004
3.2299999999999534,0.17,0.17000000000000015
3.2349999999999532,0.17,0.17000000000000104
3.239999999999953,0.17,0.1700000000000039
3.244999999999953,0.17,0.16999999999999998
3.249999999999953,0.17,0.16999999999999937
3.254999999999953,0.17,0.1699999999999964
3.2599999999999527,0.18,0.17000000000000526
3.2649999999999526,0.18,0.1700000000000015
3.2699999999999525,0.17,0.170000000000001
3.2749999999999524,0.17,0.16999999999999524
3.2799999999999523,0.17,0.17000000000000248
3.284999999999952,0.17,0.17000000000000046
3.289999999999952,0.17,0.16999999999999915
3.294999999999952,0.17,0.17000000000000007
3.299999999999952,0.17,0.17000000000000026
3.3049999999999518,0.17,0.17000000000000015
3.3099999999999516,0.18,0.16999999999999998
3.3149999999999515,0.18,0.17
3.3199999999999514,0.17,0.16999999999999982
3.3249999999999513,0.17,0.17000000000000035
3.329999999999951,0.17,0.1699999999999999
3.334999999999951,0.17,0.1700000000000001
3.339999999999951,0.17,0.16999999999999996
3.344999999999951,0.17,0.17
3.349999999999951,0.17,0.17000000000000026
3.3549999999999507,0.17,0.16999999999999998
3.3599999999999506,0.18,0.17000000000000057
3.3649999999999505,0.18,0.1700000000000002
3.3699999999999504,0.17,0.17000000000000004
3.3749999999999503,0.17,0.16999999999999987
3.37999999999995,0.17,0.17000000000000004
3.38499999999995,0.17,0.17000000000000018
3.38999999999995,0.17,0.16999999999999968
3.39499999999995,0.17,0.16999999999999987
3.3999999999999497,0.18,0.17
3.4049999999999496,0.18,0.17
3.4099999999999495,0.17,0.16999999999999982
3.4149999999999494,0.17,0.1700000000000002
3.4199999999999493,0.17,0.17000000000000018
3.424999999999949,0.17,0.16999999999999982
3.429999999999949,0.17,0.17000000000000004
3.434999999999949,0.17,0.16999999999999987
3.439999999999949,0.17,0.16999999999999996
3.4449999999999488,0.17,0.1700000000000003
3.4499999999999487,0.18,0.16999999999999993
3.4549999999999486,0.18,0.17000000000000037
3.4599999999999485,0.17,0.17000000000000015
3.4649999999999483,0.17,0.17000000000000026
3.4699999999999482,0.17,0.16999999999999976
3.474999999999948,0.17,0.16999999999999993
3.479999999999948,0.17,0.1699999999999999
3.484999999999948,0.17,0.16999999999999996
3.489999999999948,0.17,0.16999999999999968
3.4949999999999477,0.17,0.17000000000000015
3.4999999999999476,0.18,0.16999999999999996
3.5049999999999475,0.18,0.17000000000000012
3.5099999999999474,0.17,0.16999999999999996
3.5149999999999473,0.17,0.1700000000000005
3.519999999999947,0.17,0.1700000000000001
3.524999999999947,0.17,0.16999999999999996
3.529999999999947,0.17,0.17000000000000004
3.534999999999947,0.17,0.1700000000000002
3.5399999999999467,0.17,0.17000000000000032
3.5449999999999466,0.17,0.17000000000000023
3.5499999999999465,0.18,0.17000000000000007
3.5549999999999464,0.18,0.16999999999999993
3.5599999999999463,0.17,0.17000000000000035
3.564999999999946,0.17,0.16999999999999996
3.569999999999946,0.17,0.1700000000000003
3.574999999999946,0.17,0.17000000000000004
3.579999999999946,0.17,0.16999999999999998
3.584999999999946,0.17,0.17000000000000004
3.5899999999999457,0.17,0.17000000000000004
3.5949999999999456,0.17,0.17000000000000018
3.5999999999999455,0.18,0.17000000000000007
3.6049999999999454,0.18,0.1700000000000002
3.6099999999999453,0.17,0.16999999999999962
3.614999999999945,0.17,0.1700000000000003
3.619999999999945,0.17,0.17000000000000007
3.624999999999945,0.17,0.16999999999999993
3.629999999999945,0.17,0.16999999999999907
3.6349999999999447,0.17,0.16999999999999627
3.6399999999999446,0.17,0.17000000000000035
3.6449999999999445,0.17,0.1699999999999999
3.6499999999999444,0.18,0.16999999999999713
3.6549999999999443,0.18,0.17000000000000107
3.659999999999944,0.17,0.17000000000000365
3.664999999999944,0.17,0.16999999999999885
3.669999999999944,0.17,0.16999999999999865
3.674999999999944,0.17,0.16999999999999676
3.6799999999999438,0.17,0.1699999999999998
3.6849999999999437,0.17,0.16999999999999832
3.6899999999999435,0.18,0.1699999999999999
3.6949999999999434,0.18,0.1699999999999999
3.6999999999999433,0.18,0.17000000000000015
3.7049999999999432,0.18,0.16999999999999907
3.709999999999943,0.17,0.170000000000002
3.714999999999943,0.17,0.169999999999999
3.719999999999943,0.17,0.17000000000000823
3.724999999999943,0.17,0.16999999999999854
3.7299999999999427,0.17,0.1699999999999975
3.7349999999999426,0.17,0.16999999999999912
3.7399999999999425,0.17,0.17000000000000037
3.7449999999999424,0.17,0.16999999999999976
3.7499999999999423,0.18,0.17000000000000004
3.754999999999942,0.18,0.17000000000000015
3.759999999999942,0.17,0.17000000000000046
3.764999999999942,0.17,0.17000000000000176
3.769999999999942,0.17,0.1700000000000008
3.7749999999999417,0.17,0.17000000000000112
3.7799999999999416,0.17,0.17000000000000176
3.7849999999999415,0.17,0.1700000000000001
3.7899999999999414,0.18,0.1700000000000004
3.7949999999999413,0.18,0.17000000000000035
3.799999999999941,0.18,0.16999999999999915
3.804999999999941,0.18,0.16999999999999965
3.809999999999941,0.17,0.1699999999999999
3.814999999999941,0.17,0.16999999999999948
3.8199999999999408,0.17,0.16999999999999682
3.8249999999999407,0.17,0.17000000000000548
3.8299999999999406,0.17,0.1700000000000007
3.8349999999999405,0.17,0.1700000000000034
3.8399999999999403,0.18,0.17000000000000104
3.8449999999999402,0.18,0.1699999999999974
3.84999999999994,0.17,0.17000000000000162
3.85499999999994,0.17,0.1699999999999999
3.85999999999994,0.17,0.17000000000000012
3.86499999999994,0.17,0.17000000000000037
3.8699999999999397,0.17,0.16999999999999985
3.8749999999999396,0.17,0.16999999999999968
3.8799999999999395,0.17,0.16999999999999982
3.8849999999999394,0.17,0.17000000000000032
3.8899999999999393,0.18,0.1700000000000009
3.894999999999939,0.18,0.16999999999999982
3.899999999999939,0.17,0.16999999999999976
3.904999999999939,0.17,0.17000000000000007
3.909999999999939,0.17,0.16999999999999965
3.9149999999999388,0.17,0.17000000000000048
3.9199999999999386,0.17,0.1699999999999992
3.9249999999999385,0.17,0.16999999999999993
3.9299999999999384,0.17,0.17
3.9349999999999383,0.18,0.16999999999999998
3.939999999999938,0.18,0.1699999999999998
3.944999999999938,0.18,0.17000000000000004
3.949999999999938,0.17,0.16999999999999948
3.954999999999938,0.17,0.17000000000000004
3.959999999999938,0.17,0.17000000000000084
3.9649999999999377,0.17,0.16999999999999962
3.9699999999999376,0.17,0.16999999999999996
3.9749999999999375,0.17,0.16999999999999998
3.9799999999999374,0.17,0.17000000000000007
3.9849999999999373,0.17,0.1700000000000002
3.989999999999937,0.18,0.1700000000000003
3.994999999999937,0.18,0.16999999999999965
3.999999999999937,0.17,0.16999999999999976
4.004999999999937,0.17,0.17000000000000037
4.009999999999937,0.17,0.16999999999999918
4.014999999999937,0.17,0.1699999999999987
4.0199999999999365,0.17,0.16999999999999826
4.024999999999936,0.17,0.16999999999999887
4.029999999999936,0.18,0.16999999999999998
4.034999999999936,0.18,0.1699999999999997
4.039999999999936,0.17,0.17000000000000012
4.044999999999936,0.17,0.17000000000000026
4.049999999999936,0.17,0.1699999999999998
4.054999999999936,0.17,0.17000000000000007
4.059999999999936,0.17,0.17000000000000323
4.0649999999999356,0.17,0.16999999999999832
4.0699999999999354,0.17,0.1700000000000026
4.074999999999935,0.17,0.16999999999999918
4.079999999999935,0.18,0.1699999999999997
4.084999999999935,0.17,0.1699999999999996
4.089999999999935,0.17,0.16999999999999973
4.094999999999935,0.17,0.17000000000000007
4.099999999999935,0.17,0.16999999999999973
4.104999999999935,0.17,0.16999999999999962
4.109999999999935,0.17,0.1700000000000012
4.1149999999999345,0.17,0.17000000000000104
4.119999999999934,0.17,0.17000000000000068
4.124999999999934,0.17,0.16999999999999993
4.129999999999934,0.18,0.17000000000000004
4.134999999999934,0.18,0.16999999999999993
4.139999999999934,0.17,0.17000000000000018
4.144999999999934,0.17,0.1700000000000007
4.149999999999934,0.17,0.1700000000000005
4.154999999999934,0.17,0.16999999999999987
4.1599999999999335,0.17,0.17000000000000015
4.164999999999933,0.17,0.17000000000000018
4.169999999999933,0.17,0.17000000000000082
4.174999999999933,0.17,0.16999999999999985
4.179999999999933,0.18,0.17000000000000007
4.184999999999933,0.18,0.16999999999999996
4.189999999999933,0.17,0.17000000000000007
4.194999999999933,0.17,0.16999999999999998
4.199999999999933,0.17,0.16999999999999954
4.204999999999933,0.17,0.16999999999999998
4.2099999999999325,0.17,0.16999999999999987
4.214999999999932,0.17,0.1699999999999976
4.219999999999932,0.17,0.17000000000000143
4.224999999999932,0.17,0.1700000000000014
4.229999999999932,0.18,0.16999999999999943
4.234999999999932,0.18,0.17000000000000148
4.239999999999932,0.17,0.16999999999999996
4.244999999999932,0.17,0.17000000000000087
4.249999999999932,0.17,0.17000000000000115
4.2549999999999315,0.17,0.17000000000000062
4.259999999999931,0.17,0.17000000000000007
4.264999999999931,0.17,0.1699999999999992
4.269999999999931,0.17,0.17000000000000146
4.274999999999931,0.18,0.17000000000000037
4.279999999999931,0.18,0.16999999999999993
4.284999999999931,0.18,0.17000000000000082
4.289999999999931,0.17,0.16999999999999835
4.294999999999931,0.17,0.16999999999999912
4.2999999999999305,0.17,0.17000000000000465
4.30499999999993,0.17,0.17000000000000323
4.30999999999993,0.17,0.17000000000000096
4.31499999999993,0.17,0.1699999999999992
4.31999999999993,0.17,0.1699999999999996
4.32499999999993,0.17,0.17000000000000004
4.32999999999993,0.18,0.16999999999999968
4.33499999999993,0.18,0.1699999999999999
4.33999999999993,0.17,0.16999999999999948
4.34499999999993,0.17,0.17000000000000035
4.3499999999999295,0.17,0.1699999999999999
4.354999999999929,0.17,0.17000000000000004
4.359999999999929,0.17,0.17000000000000004
4.364999999999929,0.17,0.1700000000000003
4.369999999999929,0.17,0.17000000000000026
4.374999999999929,0.17,0.17000000000000032
4.379999999999929,0.18,0.1700000000000004
4.384999999999929,0.18,0.17000000000000107
4.389999999999929,0.17,0.16999999999999943
4.3949999999999285,0.17,0.17000000000000157
4.399999999999928,0.17,0.17000000000000032
4.404999999999928,0.17,0.16999999999999937
4.409999999999928,0.17,0.1700000000000007
4.414999999999928,0.17,0.1699999999999985
4.419999999999928,0.18,0.1700000000000007
4.424999999999928,0.18,0.1700000000000003
4.429999999999928,0.17,0.1700000000000001
4.434999999999928,0.17,0.17000000000000004
4.439999999999928,0.17,0.17000000000000012
4.4449999999999275,0.17,0.1700000000000019
4.449999999999927,0.17,0.16999999999999946
4.454999999999927,0.17,0.17000000000000012
4.459999999999927,0.17,0.17000000000000043
4.464999999999927,0.17,0.1699999999999998
4.469999999999927,0.17,0.1700000000000001
4.474999999999927,0.17,0.17000000000000004
4.479999999999927,0.17,0.16999999999999998
4.484999999999927,0.17,0.1699999999999999
4.4899999999999265,0.18,0.17000000000000015
4.494999999999926,0.18,0.1699999999999998
4.499999999999926,0.17,0.17000000000000087
4.504999999999926,0.17,0.17
4.509999999999926,0.17,0.16999999999999926
4.514999999999926,0.17,0.17000000000000004
4.519999999999926,0.17,0.17000000000000082
4.524999999999926,0.17,0.16999999999999263
4.529999999999926,0.17,0.16999999999999948
4.5349999999999255,0.17,0.16999999999999804
4.539999999999925,0.18,0.1699999999999976
4.544999999999925,0.18,0.16999999999999515
4.549999999999925,0.17,0.1699999999999849
4.554999999999925,0.17,0.1700000000000053
4.559999999999925,0.17,0.16999999999998766
4.564999999999925,0.17,0.17000000000000504
4.569999999999925,0.17,0.17000000000000148
4.574999999999925,0.17,0.17000000000000035
4.579999999999925,0.18,0.16999999999999985
4.5849999999999245,0.18,0.16999999999999948
4.589999999999924,0.18,0.17000000000000035
4.594999999999924,0.18,0.17000000000000082
4.599999999999924,0.17,0.16999999999999643
4.604999999999924,0.17,0.16999999999999882
4.609999999999924,0.17,0.17000000000000115
4.614999999999924,0.17,0.16999999999999807
4.619999999999924,0.17,0.1699999999999965
4.624999999999924,0.17,0.16999999999999713
4.6299999999999235,0.18,0.16999999999999346
4.634999999999923,0.18,0.17000000000000293
4.639999999999923,0.17,0.1699999999999988
4.644999999999923,0.17,0.16999999999999663
4.649999999999923,0.17,0.17000000000000356
4.654999999999923,0.17,0.16999999999999985
4.659999999999923,0.17,0.17000000000000115
4.664999999999923,0.17,0.16999999999999998
4.669999999999923,0.17,0.17000000000000007
4.6749999999999226,0.17,0.16999999999999987
4.6799999999999224,0.18,0.17000000000000004
4.684999999999922,0.18,0.17000000000000015
4.689999999999922,0.17,0.16999999999999985
4.694999999999922,0.17,0.17000000000000012
4.699999999999922,0.17,0.17000000000000004
4.704999999999922,0.17,0.16999999999999985
4.709999999999922,0.17,0.1699999999999998
4.714999999999922,0.17,0.16999999999999976
4.719999999999922,0.17,0.16999999999999987
4.7249999999999215,0.17,0.16999999999999998
4.729999999999921,0.18,0.17000000000000007
4.734999999999921,0.18,0.17000000000000004
4.739999999999921,0.17,0.17000000000000018
4.744999999999921,0.17,0.17000000000000112
4.749999999999921,0.17,0.16999999999999962
4.754999999999921,0.17,0.17000000000000065
4.759999999999921,0.17,0.17000000000000004
4.764999999999921,0.17,0.1700000000000001
4.7699999999999205,0.17,0.16999999999999976
4.77499999999992,0.17,0.17000000000000115
4.77999999999992,0.18,0.17000000000000004
4.78499999999992,0.18,0.17000000000000018
4.78999999999992,0.17,0.16999999999999904
4.79499999999992,0.17,0.1700000000000005
4.79999999999992,0.17,0.17
4.80499999999992,0.17,0.16999999999999985
4.80999999999992,0.17,0.16999999999999973
4.81499999999992,0.17,0.16999999999999987
4.8199999999999195,0.18,0.16999999999999996
4.824999999999919,0.18,0.17000000000000065
4.829999999999919,0.17,0.17
4.834999999999919,0.17,0.16999999999999998
4.839999999999919,0.17,0.16999999999999985
4.844999999999919,0.17,0.17000000000000015
4.849999999999919,0.17,0.17000000000000015
4.854999999999919,0.17,0.16999999999999996
4.859999999999919,0.17,0.16999999999999998
4.8649999999999185,0.17,0.16999999999999954
4.869999999999918,0.18,0.17000000000000007
4.874999999999918,0.18,0.16999999999999998
4.879999999999918,0.17,0.1699999999999994
4.884999999999918,0.17,0.16999999999999962
4.889999999999918,0.17,0.17000000000000037
4.894999999999918,0.17,0.16999999999999976
4.899999999999918,0.17,0.16999999999999987
4.904999999999918,0.17,0.1699999999999999
4.9099999999999175,0.17,0.1700000000000008
4.914999999999917,0.17,0.1700000000000004
4.919999999999917,0.18,0.17000000000000043
4.924999999999917,0.18,0.16999999999999996
4.929999999999917,0.17,0.16999999999999968
4.934999999999917,0.17,0.17000000000000046
4.939999999999917,0.17,0.1699999999999996
4.944999999999917,0.17,0.16999999999999943
4.949999999999917,0.17,0.17
4.954999999999917,0.17,0.1700000000000001
4.9599999999999165,0.17,0.1699999999999998
4.964999999999916,0.17,0.1700000000000003
4.969999999999916,0.18,0.17
4.974999999999916,0.18,0.1699999999999999
4.979999999999916,0.17,0.16999999999999996
4.984999999999916,0.17,0.16999999999999998
4.989999999999916,0.17,0.16999999999999957
4.994999999999916,0.17,0.16999999999999818
4.999999999999916,0.17,0.1700000000000011
5.0049999999999155,0.17,0.17000000000000265
5.009999999999915,0.17,0.1699999999999896
5.014999999999915,0.17,0.17000000000001167
5.019999999999915,0.18,0.17000000000000806
5.024999999999915,0.18,0.16999999999996543
5.029999999999915,0.17,0.1699999999999258
5.034999999999915,0.17,0.1699999999999211
5.039999999999915,0.17,0.17000000000005125
5.044999999999915,0.17,0.17000000000002163
5.049999999999915,0.17,0.16999999999999885
5.0549999999999145,0.18,0.1699999999999977
5.059999999999914,0.18,0.1699999999999916
5.064999999999914,0.18,0.16999999999995136
5.069999999999914,0.18,0.17000000000008067
5.074999999999914,0.18,0.170000000000022
5.079999999999914,0.17,0.17000000000003218
5.084999999999914,0.17,0.17000000000001603
5.089999999999914,0.17,0.170000000000001
5.094999999999914,0.17,0.17000000000000018
5.0999999999999135,0.17,0.16999999999999674
5.104999999999913,0.17,0.1699999999999972
5.109999999999913,0.17,0.16999999999999127
5.114999999999913,0.17,0.16999999999999837
5.119999999999913,0.18,0.17000000000000456
5.124999999999913,0.18,0.16999999999999693
5.129999999999913,0.17,0.1699999999999992
5.134999999999913,0.17,0.16999999999999973
5.139999999999913,0.17,0.17000000000000023
5.1449999999999125,0.17,0.17000000000000004
5.149999999999912,0.17,0.16999999999999985
5.154999999999912,0.17,0.1700000000000001
5.159999999999912,0.18,0.16999999999999965
5.164999999999912,0.18,0.17000000000000062
5.169999999999912,0.17,0.1699999999999999
5.174999999999912,0.17,0.16999999999999996
5.179999999999912,0.17,0.16999999999999924
5.184999999999912,0.17,0.17000000000000048
5.189999999999912,0.17,0.16999999999999998
5.1949999999999115,0.17,0.17000000000000023
5.199999999999911,0.17,0.17000000000000112
5.204999999999911,0.17,0.1700000000000004
5.209999999999911,0.17,0.16999999999999965
5.214999999999911,0.17,0.16999999999999987
5.219999999999911,0.18,0.1700000000000002
5.224999999999911,0.18,0.16999999999999876
5.229999999999911,0.17,0.1699999999999999
5.234999999999911,0.17,0.17000000000000215
5.2399999999999105,0.17,0.1699999999999983
5.24499999999991,0.17,0.17000000000000035
5.24999999999991,0.17,0.1700000000000001
5.25499999999991,0.17,0.16999999999999996
5.25999999999991,0.17,0.16999999999999973
5.26499999999991,0.17,0.1700000000000001
5.26999999999991,0.18,0.17000000000000004
5.27499999999991,0.18,0.16999999999999965
5.27999999999991,0.17,0.1700000000000004
5.2849999999999095,0.17,0.17000000000000082
5.289999999999909,0.17,0.16999999999999998
5.294999999999909,0.17,0.16999999999999962
5.299999999999909,0.17,0.17000000000000004
5.304999999999909,0.17,0.17000000000000054
5.309999999999909,0.17,0.17000000000000015
5.314999999999909,0.17,0.17000000000000026
5.319999999999909,0.18,0.16999999999999993
5.324999999999909,0.18,0.16999999999999987
5.329999999999909,0.17,0.17000000000000043
5.3349999999999085,0.17,0.16999999999999965
5.339999999999908,0.17,0.17000000000000046
5.344999999999908,0.17,0.16999999999999998
5.349999999999908,0.17,0.16999999999999996
5.354999999999908,0.17,0.1699999999999998
5.359999999999908,0.17,0.16999999999999912
5.364999999999908,0.17,0.1700000000000003
5.369999999999908,0.18,0.17000000000000004
5.374999999999908,0.18,0.1699999999999999
5.3799999999999075,0.17,0.16999999999999998
5.384999999999907,0.17,0.1699999999999988
5.389999999999907,0.17,0.17000000000000057
5.394999999999907,0.17,0.1699999999999999
5.399999999999907,0.17,0.17
5.404999999999907,0.17,0.17000000000000126
5.409999999999907,0.17,0.17000000000000068
5.414999999999907,0.17,0.17000000000000026
5.419999999999907,0.18,0.1700000000000005
5.424999999999907,0.18,0.17
5.4299999999999065,0.17,0.17000000000000018
5.434999999999906,0.17,0.16999999999999985
5.439999999999906,0.17,0.17000000000000004
5.444999999999906,0.17,0.16999999999999998
5.449999999999906,0.17,0.16999999999999987
5.454999999999906,0.17,0.16999999999999996
5.459999999999906,0.17,0.16999999999999998
5.464999999999906,0.17,0.16999999999999962
5.469999999999906,0.18,0.17000000000000018
5.4749999999999055,0.18,0.16999999999999996
5.479999999999905,0.17,0.1699999999999998
5.484999999999905,0.17,0.17000000000000015
5.489999999999905,0.17,0.16999999999999973
5.494999999999905,0.17,0.16999999999999985
5.499999999999905,0.17,0.16999999999999965
5.504999999999905,0.17,0.170000000000001
5.509999999999905,0.17,0.16999999999999774
5.514999999999905,0.17,0.17000000000000215
5.5199999999999045,0.18,0.17000000000000076
5.524999999999904,0.18,0.16999999999999976
5.529999999999904,0.17,0.16999999999999996
5.534999999999904,0.17,0.16999999999999968
5.539999999999904,0.17,0.17000000000000076
5.544999999999904,0.17,0.16999999999999812
5.549999999999904,0.17,0.17000000000000087
5.554999999999904,0.17,0.16999999999999707
5.559999999999904,0.17,0.16999999999999868
5.564999999999904,0.17,0.169999999999999
5.5699999999999035,0.17,0.16999999999999998
5.574999999999903,0.17,0.17000000000000015
5.579999999999903,0.17,0.1699999999999984
5.584999999999903,0.17,0.17000000000000076
5.589999999999903,0.17,0.17000000000000026
5.594999999999903,0.17,0.17000000000000157
5.599999999999903,0.17,0.16999999999999993
5.604999999999903,0.17,0.17000000000000004
5.609999999999903,0.18,0.17000000000000004
5.6149999999999025,0.18,0.17000000000000143
5.619999999999902,0.17,0.1699999999999983
5.624999999999902,0.17,0.17000000000000265
5.629999999999902,0.17,0.17000000000000007
5.634999999999902,0.17,0.17
5.639999999999902,0.17,0.16999999999999996
5.644999999999902,0.17,0.17000000000000032
5.649999999999902,0.17,0.1700000000000001
5.654999999999902,0.17,0.1700000000000003
5.6599999999999016,0.18,0.17000000000000032
5.6649999999999014,0.18,0.16999999999999987
5.669999999999901,0.17,0.16999999999999957
5.674999999999901,0.17,0.16999999999999987
5.679999999999901,0.17,0.17000000000000007
5.684999999999901,0.17,0.16999999999999993
5.689999999999901,0.17,0.16999999999999899
5.694999999999901,0.17,0.17000000000000423
5.699999999999901,0.17,0.16999999999999973
5.704999999999901,0.17,0.17000000000000137
5.7099999999999005,0.18,0.170000000000001
5.7149999999999,0.18,0.1699999999999998
5.7199999999999,0.17,0.16999999999999985
5.7249999999999,0.17,0.16999999999999968
5.7299999999999,0.17,0.16999999999999965
5.7349999999999,0.17,0.17000000000000423
5.7399999999999,0.17,0.16999999999999868
5.7449999999999,0.17,0.17000000000000495
5.7499999999999,0.17,0.16999999999999965
5.7549999999998995,0.17,0.17000000000000004
5.759999999999899,0.17,0.16999999999999987
5.764999999999899,0.17,0.17000000000000495
5.769999999999899,0.17,0.170000000000005
5.774999999999899,0.17,0.17000000000000332
5.779999999999899,0.17,0.16999999999999885
5.784999999999899,0.17,0.1700000000000002
5.789999999999899,0.17,0.17000000000000004
5.794999999999899,0.17,0.17000000000000035
5.799999999999899,0.18,0.1700000000000008
5.8049999999998985,0.18,0.1699999999999998
5.809999999999898,0.17,0.17000000000000065
5.814999999999898,0.17,0.1700000000000018
5.819999999999898,0.17,0.16999999999999962
5.824999999999898,0.17,0.16999999999999918
5.829999999999898,0.17,0.17
5.834999999999898,0.17,0.17000000000000018
5.839999999999898,0.17,0.17000000000000026
5.844999999999898,0.17,0.17000000000000054
5.8499999999998975,0.18,0.17000000000000032
5.854999999999897,0.18,0.1700000000000001
5.859999999999897,0.17,0.16999999999999996
5.864999999999897,0.17,0.16999999999999968
5.869999999999897,0.17,0.1700000000000001
5.874999999999897,0.17,0.17000000000000007
5.879999999999897,0.17,0.17000000000000018
5.884999999999897,0.17,0.16999999999999998
5.889999999999897,0.17,0.1700000000000005
5.8949999999998965,0.17,0.17000000000000037
5.899999999999896,0.18,0.16999999999999957
5.904999999999896,0.18,0.17000000000000165
5.909999999999896,0.17,0.17000000000000007
5.914999999999896,0.17,0.1700000000000008
5.919999999999896,0.17,0.1699999999999998
5.924999999999896,0.17,0.17000000000000004
5.929999999999896,0.17,0.16999999999999998
5.934999999999896,0.17,0.16999999999999998
5.939999999999896,0.18,0.17
5.9449999999998955,0.18,0.17
5.949999999999895,0.17,0.17000000000000037
5.954999999999895,0.17,0.17
5.959999999999895,0.17,0.17000000000000037
5.964999999999895,0.17,0.17000000000000035
5.969999999999895,0.17,0.16999999999999532
5.974999999999895,0.17,0.17000000000000004
5.979999999999895,0.17,0.1699999999999981
5.984999999999895,0.17,0.17000000000000073
5.9899999999998945,0.17,0.16999999999999982
5.994999999999894,0.17,0.17000000000000068
5.999999999999894,0.17,0.1700000000000004
6.004999999999894,0.17,0.16999999999999915
6.009999999999894,0.17,0.1700000000000007
6.014999999999894,0.17,0.17000000000000248
6.019999999999894,0.17,0.16999999999999565
6.024999999999894,0.17,0.16999999999999782
6.029999999999894,0.17,0.17000000000000118
6.034999999999894,0.17,0.16999999999999948
6.0399999999998935,0.17,0.16999999999999854
6.044999999999893,0.17,0.16999999999999987
6.049999999999893,0.18,0.16999999999999996
6.054999999999893,0.18,0.16999999999999993
6.059999999999893,0.17,0.1700000000000005
6.064999999999893,0.17,0.1699999999999945
6.069999999999893,0.17,0.17000000000000826
6.074999999999893,0.17,0.16999999999999352
6.079999999999893,0.17,0.16999999999998622
6.0849999999998925,0.17,0.16999999999998133
6.089999999999892,0.17,0.17000000000003576
6.094999999999892,0.17,0.169999999999986
6.099999999999892,0.18,0.16999999999999652
6.104999999999892,0.18,0.1700000000000001
6.109999999999892,0.18,0.16999999999999715
6.114999999999892,0.18,0.16999999999999263
6.119999999999892,0.17,0.1700000000000537
6.124999999999892,0.17,0.16999999999997
6.1299999999998915,0.17,0.17000000000000307
6.134999999999891,0.17,0.1699999999999897
6.139999999999891,0.17,0.17000000000000343
6.144999999999891,0.17,0.1699999999999952
6.149999999999891,0.17,0.17000000000000742
6.154999999999891,0.17,0.17000000000000107
6.159999999999891,0.18,0.17000000000000418
6.164999999999891,0.18,0.16999999999999932
6.169999999999891,0.17,0.16999999999999793
6.174999999999891,0.17,0.1700000000000005
6.1799999999998905,0.17,0.16999999999999937
6.18499999999989,0.17,0.16999999999999976
6.18999999999989,0.17,0.16999999999999982
6.19499999999989,0.17,0.1699999999999997
6.19999999999989,0.17,0.1700000000000003
6.20499999999989,0.17,0.17000000000000004
6.20999999999989,0.18,0.16999999999999987
6.21499999999989,0.18,0.1699999999999995
6.21999999999989,0.17,0.16999999999999962
6.2249999999998895,0.17,0.1699999999999999
6.229999999999889,0.17,0.16999999999999993
6.234999999999889,0.17,0.16999999999999993
6.239999999999889,0.17,0.17
6.244999999999889,0.17,0.16999999999999957
6.249999999999889,0.17,0.16999999999999854
6.254999999999889,0.17,0.17000000000000073
6.259999999999889,0.18,0.16999999999999965
6.264999999999889,0.18,0.17000000000000004
6.2699999999998886,0.17,0.16999999999999985
6.2749999999998884,0.17,0.1699999999999999
6.279999999999888,0.17,0.16999999999999957
6.284999999999888,0.17,0.1700000000000001
6.289999999999888,0.17,0.17000000000000023
6.294999999999888,0.17,0.17000000000000176
6.299999999999888,0.17,0.16999999999999812
6.304999999999888,0.17,0.17000000000000143
6.309999999999888,0.18,0.16999999999999973
6.314999999999888,0.18,0.17000000000000062
6.3199999999998875,0.17,0.1699999999999999
6.324999999999887,0.17,0.1700000000000001
6.329999999999887,0.17,0.16999999999999976
6.334999999999887,0.17,0.16999999999999993
6.339999999999887,0.17,0.1700000000000004
6.344999999999887,0.17,0.17000000000000004
6.349999999999887,0.17,0.16999999999999985
6.354999999999887,0.17,0.16999999999999998
6.359999999999887,0.17,0.17000000000000046
6.3649999999998865,0.17,0.17000000000000018
6.369999999999886,0.18,0.17000000000000082
6.374999999999886,0.18,0.17000000000000048
6.379999999999886,0.17,0.16999999999999904
6.384999999999886,0.17,0.16999999999999876
6.389999999999886,0.17,0.16999999999999893
6.394999999999886,0.17,0.17000000000000048
6.399999999999886,0.17,0.17000000000000023
6.404999999999886,0.17,0.17000000000000115
6.409999999999886,0.17,0.17000000000000018
6.4149999999998855,0.17,0.1700000000000015
6.419999999999885,0.18,0.17000000000000043
6.424999999999885,0.18,0.16999999999999998
6.429999999999885,0.17,0.1699999999999998
6.434999999999885,0.17,0.17000000000000007
6.439999999999885,0.17,0.17000000000000032
6.444999999999885,0.17,0.17000000000000018
6.449999999999885,0.17,0.17000000000000007
6.454999999999885,0.17,0.17000000000000007
6.4599999999998845,0.17,0.1699999999999999
6.464999999999884,0.17,0.17000000000000026
6.469999999999884,0.18,0.1700000000000001
6.474999999999884,0.18,0.17000000000000073
6.479999999999884,0.17,0.16999999999999962
6.484999999999884,0.17,0.16999999999999907
6.489999999999884,0.17,0.16999999999999973
6.494999999999884,0.17,0.17000000000000023
6.499999999999884,0.17,0.16999999999999837
6.5049999999998835,0.17,0.17000000000000343
6.509999999999883,0.17,0.17000000000000223
6.514999999999883,0.17,0.16999999999999588
6.519999999999883,0.18,0.17000000000000118
6.524999999999883,0.18,0.16999999999999746
6.529999999999883,0.17,0.16999999999999965
6.534999999999883,0.17,0.16999999999999996
6.539999999999883,0.17,0.1699999999999995
6.544999999999883,0.17,0.1700000000000017
6.549999999999883,0.17,0.17000000000000026
6.5549999999998825,0.17,0.17000000000000093
6.559999999999882,0.17,0.16999999999999926
6.564999999999882,0.17,0.1700000000000008
6.569999999999882,0.17,0.16999999999999943
6.574999999999882,0.17,0.17000000000000484
6.579999999999882,0.17,0.17000000000000104
6.584999999999882,0.17,0.1700000000000045
6.589999999999882,0.17,0.169999999999999
6.594999999999882,0.17,0.17000000000000096
6.5999999999998815,0.17,0.1700000000000006
6.604999999999881,0.17,0.1700000000000014
6.609999999999881,0.18,0.16999999999999815
6.614999999999881,0.18,0.1699999999999985
6.619999999999881,0.17,0.17000000000000037
6.624999999999881,0.17,0.1699999999999947
6.629999999999881,0.17,0.16999999999999926
6.634999999999881,0.17,0.16999999999999796
6.639999999999881,0.17,0.16999999999999918
6.644999999999881,0.17,0.16999999999999996
6.6499999999998805,0.17,0.17000000000000118
6.65499999999988,0.17,0.17000000000000073
6.65999999999988,0.18,0.1700000000000003
6.66499999999988,0.18,0.1700000000000001
6.66999999999988,0.17,0.1700000000000001
6.67499999999988,0.17,0.16999999999999968
6.67999999999988,0.17,0.17000000000000004
6.68499999999988,0.17,0.17000000000000007
6.68999999999988,0.17,0.16999999999999982
6.6949999999998795,0.17,0.1699999999999999
6.699999999999879,0.17,0.16999999999999993
6.704999999999879,0.17,0.1699999999999998
6.709999999999879,0.18,0.17000000000000004
6.714999999999879,0.18,0.17000000000000004
6.719999999999879,0.17,0.16999999999999985
6.724999999999879,0.17,0.17000000000000012
6.729999999999879,0.17,0.1699999999999999
6.734999999999879,0.17,0.1700000000000005
6.7399999999998785,0.17,0.17000000000000062
6.744999999999878,0.17,0.1700000000000008
6.749999999999878,0.17,0.1700000000000005
6.754999999999878,0.17,0.17000000000000026
6.759999999999878,0.18,0.17
6.764999999999878,0.18,0.17000000000000073
6.769999999999878,0.17,0.17000000000000062
6.774999999999878,0.17,0.1699999999999996
6.779999999999878,0.17,0.16999999999999915
6.784999999999878,0.17,0.17000000000000048
6.7899999999998775,0.17,0.16999999999999918
6.794999999999877,0.17,0.16999999999999865
6.799999999999877,0.17,0.16999999999999948
6.804999999999877,0.17,0.16999999999999987
6.809999999999877,0.18,0.17000000000000048
6.814999999999877,0.18,0.17000000000000184
6.819999999999877,0.17,0.17000000000000057
6.824999999999877,0.17,0.17000000000000046
6.829999999999877,0.17,0.17000000000000007
6.8349999999998765,0.17,0.17000000000000207
6.839999999999876,0.17,0.16999999999999862
6.844999999999876,0.17,0.16999999999999962
6.849999999999876,0.17,0.17000000000000004
6.854999999999876,0.17,0.1699999999999993
6.859999999999876,0.17,0.17000000000000326
6.864999999999876,0.17,0.1699999999999986
6.869999999999876,0.17,0.1699999999999997
6.874999999999876,0.17,0.17000000000000576
6.8799999999998755,0.17,0.17000000000000223
6.884999999999875,0.17,0.16999999999999868
6.889999999999875,0.17,0.16999999999999899
6.894999999999875,0.17,0.16999999999999973
6.899999999999875,0.18,0.16999999999999948
6.904999999999875,0.18,0.1699999999999987
6.909999999999875,0.17,0.17000000000000062
6.914999999999875,0.17,0.17000000000000004
6.919999999999875,0.17,0.16999999999999907
6.924999999999875,0.17,0.17000000000000018
6.9299999999998745,0.17,0.17000000000000023
6.934999999999874,0.17,0.17000000000000023
6.939999999999874,0.17,0.16999999999999998
6.944999999999874,0.17,0.17000000000000018
6.949999999999874,0.17,0.16999999999999962
6.954999999999874,0.17,0.16999999999999987
6.959999999999874,0.18,0.1700000000000008
6.964999999999874,0.18,0.17000000000000107
6.969999999999874,0.17,0.1699999999999992
6.9749999999998735,0.17,0.1699999999999984
6.979999999999873,0.17,0.16999999999999912
6.984999999999873,0.17,0.17000000000000015
6.989999999999873,0.17,0.16999999999999887
6.994999999999873,0.17,0.16999999999999937
6.999999999999873,0.17,0.17000000000000176
7.004999999999873,0.17,0.17000000000000343
7.009999999999873,0.17,0.1699999999999991
7.014999999999873,0.17,0.16999999999999646
7.019999999999873,0.17,0.1700000000000036
7.0249999999998725,0.17,0.16999999999999948
7.029999999999872,0.18,0.17000000000000204
7.034999999999872,0.18,0.17000000000000026
7.039999999999872,0.17,0.16999999999999976
7.044999999999872,0.17,0.16999999999999996
7.049999999999872,0.17,0.17000000000000035
7.054999999999872,0.17,0.1700000000000049
7.059999999999872,0.17,0.1700000000000055
7.064999999999872,0.17,0.16999999999999424
7.0699999999998715,0.17,0.17000000000000118
7.074999999999871,0.17,0.1700000000000032
7.079999999999871,0.17,0.17000000000000087
7.084999999999871,0.17,0.17000000000000007
7.089999999999871,0.17,0.17000000000000196
7.094999999999871,0.17,0.16999999999999874
7.099999999999871,0.17,0.17000000000000035
7.104999999999871,0.17,0.17000000000000207
7.109999999999871,0.17,0.1700000000000002
7.1149999999998705,0.17,0.16999999999999957
7.11999999999987,0.18,0.17000000000000154
7.12499999999987,0.18,0.17000000000000123
7.12999999999987,0.17,0.1699999999999973
7.13499999999987,0.17,0.16999999999999793
7.13999999999987,0.17,0.17000000000000068
7.14499999999987,0.17,0.1700000000000005
7.14999999999987,0.17,0.16999999999999976
7.15499999999987,0.17,0.16999999999999754
7.15999999999987,0.17,0.17000000000000257
7.1649999999998695,0.17,0.16999999999999846
7.169999999999869,0.18,0.16999999999999954
7.174999999999869,0.18,0.17000000000000373
7.179999999999869,0.17,0.16999999999999962
7.184999999999869,0.17,0.17000000000000015
7.189999999999869,0.17,0.17000000000000026
7.194999999999869,0.17,0.16999999999999968
7.199999999999869,0.17,0.17000000000000137
7.204999999999869,0.17,0.16999999999999968
7.2099999999998685,0.17,0.17000000000000143
7.214999999999868,0.17,0.17000000000000182
7.219999999999868,0.17,0.17000000000000104
7.224999999999868,0.17,0.16999999999999982
7.229999999999868,0.17,0.1700000000000012
7.234999999999868,0.17,0.1700000000000003
7.239999999999868,0.17,0.1700000000000007
7.244999999999868,0.17,0.16999999999999973
7.249999999999868,0.17,0.16999999999999932
7.2549999999998676,0.17,0.17000000000000015
7.2599999999998674,0.18,0.1700000000000002
7.264999999999867,0.18,0.16999999999999868
7.269999999999867,0.17,0.1700000000000026
7.274999999999867,0.17,0.1699999999999998
7.279999999999867,0.17,0.17000000000000173
7.284999999999867,0.17,0.16999999999999843
7.289999999999867,0.17,0.16999999999999985
7.294999999999867,0.17,0.17
7.299999999999867,0.17,0.17000000000000032
7.3049999999998665,0.17,0.17000000000000057
7.309999999999866,0.18,0.17000000000000073
7.314999999999866,0.18,0.17000000000000057
7.319999999999866,0.17,0.16999999999999973
7.324999999999866,0.17,0.17000000000000073
7.329999999999866,0.17,0.17000000000000096
7.334999999999866,0.17,0.16999999999999965
7.339999999999866,0.17,0.17000000000000226
7.344999999999866,0.17,0.16999999999999887
7.3499999999998655,0.17,0.16999999999999957
7.354999999999865,0.17,0.17
7.359999999999865,0.18,0.16999999999999993
7.364999999999865,0.18,0.17000000000000012
7.369999999999865,0.17,0.17000000000000007
7.374999999999865,0.17,0.17000000000000054
7.379999999999865,0.17,0.16999999999999954
7.384999999999865,0.17,0.1700000000000003
7.389999999999865,0.17,0.17000000000000018
7.394999999999865,0.17,0.17000000000000012
7.3999999999998645,0.18,0.16999999999999932
7.404999999999864,0.18,0.16999999999999812
7.409999999999864,0.17,0.17000000000000093
7.414999999999864,0.17,0.16999999999999885
7.419999999999864,0.17,0.16999999999999757
7.424999999999864,0.17,0.17000000000000218
7.429999999999864,0.17,0.1699999999999848
7.434999999999864,0.17,0.17000000000000645
7.439999999999864,0.17,0.1699999999999934
7.4449999999998635,0.18,0.17000000000000295
7.449999999999863,0.18,0.16999999999999546
7.454999999999863,0.18,0.16999999999999701
7.459999999999863,0.18,0.16999999999999998
7.464999999999863,0.17,0.170000000000002
7.469999999999863,0.17,0.17000000000000445
7.474999999999863,0.17,0.1700000000000032
7.479999999999863,0.17,0.16999999999999818
7.484999999999863,0.17,0.16999999999999713
7.4899999999998625,0.17,0.17000000000000573
7.494999999999862,0.17,0.16999999999999926
7.499999999999862,0.17,0.1699999999999978
7.504999999999862,0.17,0.17000000000000254
7.509999999999862,0.18,0.16999999999999815
7.514999999999862,0.18,0.16999999999999968
7.519999999999862,0.17,0.17000000000000315
7.524999999999862,0.17,0.17000000000000143
7.529999999999862,0.17,0.17000000000000062
7.534999999999862,0.17,0.17000000000000007
7.5399999999998615,0.17,0.1699999999999998
7.544999999999861,0.17,0.16999999999999965
7.549999999999861,0.17,0.17000000000000096
7.554999999999861,0.17,0.16999999999999957
7.559999999999861,0.18,0.17000000000000004
7.564999999999861,0.18,0.16999999999999998
7.569999999999861,0.17,0.1699999999999989
7.574999999999861,0.17,0.16999999999999876
7.579999999999861,0.17,0.16999999999999926
7.5849999999998605,0.17,0.17000000000000065
7.58999999999986,0.17,0.1699999999999999
7.59499999999986,0.17,0.17
7.59999999999986,0.17,0.16999999999999996
7.60499999999986,0.17,0.17000000000000048
7.60999999999986,0.18,0.16999999999999998
7.61499999999986,0.18,0.1699999999999998
7.61999999999986,0.17,0.17000000000000004
7.62499999999986,0.17,0.1699999999999998
7.62999999999986,0.17,0.17
7.6349999999998595,0.17,0.16999999999999998
7.639999999999859,0.17,0.17000000000000098
7.644999999999859,0.17,0.16999999999999893
7.649999999999859,0.17,0.1699999999999998
7.654999999999859,0.17,0.17000000000000043
7.659999999999859,0.18,0.16999999999999982
7.664999999999859,0.18,0.17000000000000004
7.669999999999859,0.17,0.1699999999999992
7.674999999999859,0.17,0.1699999999999993
7.6799999999998585,0.17,0.1700000000000001
7.684999999999858,0.17,0.17000000000000012
7.689999999999858,0.17,0.17000000000000012
7.694999999999858,0.17,0.17000000000000043
7.699999999999858,0.17,0.17000000000000073
7.704999999999858,0.17,0.16999999999999957
7.709999999999858,0.18,0.17000000000000007
7.714999999999858,0.18,0.17000000000000012
7.719999999999858,0.17,0.1700000000000006
7.7249999999998575,0.17,0.16999999999999882
7.729999999999857,0.17,0.16999999999999996
7.734999999999857,0.17,0.17
7.739999999999857,0.17,0.17000000000000054
7.744999999999857,0.17,0.1699999999999995
7.749999999999857,0.17,0.17000000000000057
7.754999999999857,0.17,0.17000000000000065
7.759999999999857,0.18,0.1700000000000009
7.764999999999857,0.18,0.16999999999999843
7.769999999999857,0.17,0.16999999999999976
7.7749999999998565,0.17,0.17000000000000054
7.779999999999856,0.17,0.1700000000000001
7.784999999999856,0.17,0.16999999999999996
7.789999999999856,0.17,0.17000000000000037
7.794999999999856,0.17,0.16999999999999957
7.799999999999856,0.18,0.1699999999999988
7.804999999999856,0.18,0.16999999999999899
7.809999999999856,0.17,0.17000000000000037
7.814999999999856,0.17,0.16999999999999976
7.8199999999998555,0.17,0.16999999999999982
7.824999999999855,0.17,0.16999999999999926
7.829999999999855,0.17,0.16999999999999996
7.834999999999855,0.17,0.17000000000000032
7.839999999999855,0.17,0.16999999999999937
7.844999999999855,0.17,0.17000000000000004
7.849999999999855,0.18,0.17000000000000023
7.854999999999855,0.18,0.17000000000000007
7.859999999999855,0.17,0.17000000000000007
7.8649999999998546,0.17,0.1700000000000004
7.8699999999998544,0.17,0.1700000000000001
7.874999999999854,0.17,0.17000000000000004
7.879999999999854,0.17,0.1700000000000013
7.884999999999854,0.17,0.16999999999999935
7.889999999999854,0.17,0.16999999999999976
7.894999999999854,0.17,0.17000000000000026
7.899999999999854,0.18,0.1700000000000005
7.904999999999854,0.18,0.17000000000000268
7.909999999999854,0.17,0.16999999999999818
7.9149999999998535,0.17,0.17000000000000023
7.919999999999853,0.17,0.16999999999999976
7.924999999999853,0.17,0.1699999999999985
7.929999999999853,0.17,0.17000000000000184
7.934999999999853,0.17,0.17000000000000232
7.939999999999853,0.17,0.17000000000000212
7.944999999999853,0.17,0.16999999999999998
7.949999999999853,0.17,0.1700000000000002
7.954999999999853,0.17,0.16999999999999996
7.9599999999998525,0.17,0.17000000000000076
7.964999999999852,0.17,0.1699999999999997
7.969999999999852,0.17,0.16999999999999868
7.974999999999852,0.17,0.17000000000000098
7.979999999999852,0.17,0.17000000000000084
7.984999999999852,0.17,0.170000000000001
7.989999999999852,0.17,0.17000000000000012
7.994999999999852,0.17,0.16999999999999965
7.999999999999852,0.18,0.1700000000000014
8.004999999999852,0.18,0.1700000000000037
8.009999999999852,0.17,0.17000000000000223
8.014999999999853,0.17,0.17000000000000048
8.019999999999854,0.17,0.1699999999999994
8.024999999999855,0.17,0.17000000000000123
8.029999999999855,0.17,0.1699999999999999
8.034999999999856,0.17,0.17000000000000237
8.039999999999857,0.17,0.17000000000000007
8.044999999999858,0.17,0.16999999999999896
8.049999999999859,0.18,0.16999999999999818
8.05499999999986,0.18,0.1700000000000007
8.05999999999986,0.17,0.17000000000000032
8.064999999999861,0.17,0.16999999999999996
8.069999999999862,0.17,0.17000000000000015
8.074999999999863,0.17,0.1700000000000004
8.079999999999863,0.17,0.16999999999999924
8.084999999999864,0.17,0.1699999999999999
8.089999999999865,0.17,0.16999999999999793
8.094999999999866,0.17,0.17000000000001225
8.099999999999866,0.17,0.17000000000000595
8.104999999999867,0.17,0.17000000000002258
8.109999999999868,0.17,0.16999999999994297
8.114999999999869,0.17,0.1700000000000382
8.11999999999987,0.17,0.1700000000000473
8.12499999999987,0.17,0.16999999999991025
8.129999999999871,0.17,0.1699999999999998
8.134999999999872,0.18,0.1700000000000003
8.139999999999873,0.18,0.1700000000000005
8.144999999999873,0.18,0.17000000000000068
8.149999999999874,0.18,0.17000000000004353
8.154999999999875,0.18,0.1700000000000987
8.159999999999876,0.17,0.16999999999994747
8.164999999999877,0.17,0.1700000000000621
8.169999999999877,0.17,0.16999999999997287
8.174999999999878,0.17,0.17000000000000687
8.179999999999879,0.17,0.17000000000000515
8.18499999999988,0.17,0.17000000000000082
8.18999999999988,0.17,0.17000000000000276
8.194999999999881,0.17,0.17000000000000842
8.199999999999882,0.18,0.17000000000000098
8.204999999999883,0.18,0.16999999999999846
8.209999999999884,0.17,0.16999999999999144
8.214999999999884,0.17,0.17000000000000068
8.219999999999885,0.17,0.170000000000002
8.224999999999886,0.17,0.1699999999999994
8.229999999999887,0.17,0.1699999999999999
8.234999999999888,0.17,0.1699999999999993
8.239999999999888,0.17,0.1699999999999984
8.244999999999889,0.17,0.17000000000000015
8.24999999999989,0.18,0.16999999999999993
8.25499999999989,0.18,0.16999999999999915
8.259999999999891,0.17,0.17000000000000035
8.264999999999892,0.17,0.17000000000000268
8.269999999999893,0.17,0.17000000000000043
8.274999999999894,0.17,0.1699999999999994
8.279999999999895,0.17,0.16999999999999998
8.284999999999895,0.17,0.17000000000000046
8.289999999999896,0.17,0.16999999999999968
8.294999999999897,0.17,0.1700000000000001
8.299999999999898,0.18,0.1700000000000003
8.304999999999898,0.18,0.16999999999999998
8.3099999999999,0.17,0.16999999999999968
8.3149999999999,0.17,0.17000000000000012
8.3199999999999,0.17,0.16999999999999926
8.324999999999902,0.17,0.1699999999999999
8.329999999999902,0.17,0.17000000000000015
8.334999999999903,0.17,0.16999999999999935
8.339999999999904,0.17,0.17000000000000087
8.344999999999905,0.17,0.16999999999999943
8.349999999999905,0.18,0.17000000000000026
8.354999999999906,0.18,0.16999999999999987
8.359999999999907,0.17,0.1699999999999997
8.364999999999908,0.17,0.16999999999999962
8.369999999999909,0.17,0.16999999999999996
8.37499999999991,0.17,0.17000000000000218
8.37999999999991,0.17,0.17000000000000073
8.384999999999911,0.17,0.17000000000000054
8.389999999999912,0.18,0.16999999999999957
8.394999999999913,0.18,0.17
8.399999999999913,0.17,0.17000000000000032
8.404999999999914,0.17,0.17000000000000112
8.409999999999915,0.17,0.17000000000000082
8.414999999999916,0.17,0.1699999999999986
8.419999999999916,0.17,0.1700000000000015
8.424999999999917,0.17,0.16999999999999535
8.429999999999918,0.17,0.16999999999999954
8.434999999999919,0.17,0.16999999999999954
8.43999999999992,0.18,0.17000000000000082
8.44499999999992,0.18,0.169999999999999
8.449999999999921,0.17,0.1700000000000013
8.454999999999922,0.17,0.17000000000000032
8.459999999999923,0.17,0.1700000000000006
8.464999999999923,0.17,0.17
8.469999999999924,0.17,0.17000000000000082
8.474999999999925,0.17,0.17000000000000254
8.479999999999926,0.17,0.1700000000000011
8.484999999999927,0.17,0.17000000000000043
8.489999999999927,0.18,0.16999999999999832
8.494999999999928,0.18,0.16999999999999985
8.499999999999929,0.17,0.17000000000000026
8.50499999999993,0.17,0.1699999999999993
8.50999999999993,0.17,0.16999999999999998
8.514999999999931,0.17,0.170000000000002
8.519999999999932,0.17,0.1699999999999992
8.524999999999933,0.17,0.16999999999999985
8.529999999999934,0.17,0.1699999999999999
8.534999999999934,0.17,0.17000000000000054
8.539999999999935,0.17,0.17000000000000579
8.544999999999936,0.17,0.17000000000000284
8.549999999999937,0.17,0.16999999999999968
8.554999999999938,0.17,0.17000000000000498
8.559999999999938,0.17,0.17000000000000545
8.564999999999939,0.17,0.1699999999999991
8.56999999999994,0.17,0.17000000000000015
8.57499999999994,0.17,0.17000000000000123
8.579999999999941,0.18,0.17000000000000226
8.584999999999942,0.18,0.16999999999999973
8.589999999999943,0.17,0.16999999999999252
8.594999999999944,0.17,0.16999999999999538
8.599999999999945,0.17,0.17000000000000132
8.604999999999945,0.17,0.17000000000000218
8.609999999999946,0.17,0.16999999999999982
8.614999999999947,0.17,0.16999999999999632
8.619999999999948,0.17,0.17000000000000204
8.624999999999948,0.17,0.16999999999999957
8.62999999999995,0.18,0.1700000000000019
8.63499999999995,0.18,0.17000000000000043
8.63999999999995,0.17,0.16999999999999932
8.644999999999952,0.17,0.17000000000000018
8.649999999999952,0.17,0.1700000000000004
8.654999999999953,0.17,0.1700000000000001
8.659999999999954,0.17,0.17000000000000237
8.664999999999955,0.17,0.16999999999999477
8.669999999999956,0.17,0.17000000000000048
8.674999999999956,0.17,0.1700000000000003
8.679999999999957,0.17,0.17000000000000093
8.684999999999958,0.17,0.16999999999999965
8.689999999999959,0.17,0.16999999999999987
8.69499999999996,0.17,0.16999999999999904
8.69999999999996,0.17,0.17
8.704999999999961,0.17,0.1699999999999998
8.709999999999962,0.17,0.16999999999999973
8.714999999999963,0.17,0.16999999999999843
8.719999999999963,0.18,0.17000000000000356
8.724999999999964,0.18,0.16999999999999843
8.729999999999965,0.17,0.17000000000000046
8.734999999999966,0.17,0.1699999999999991
8.739999999999966,0.17,0.16999999999999957
8.744999999999967,0.17,0.1700000000000001
8.749999999999968,0.17,0.16999999999999948
8.754999999999969,0.17,0.16999999999999982
8.75999999999997,0.17,0.17000000000000026
8.76499999999997,0.17,0.1699999999999999
8.769999999999971,0.18,0.16999999999999993
8.774999999999972,0.18,0.17000000000000007
8.779999999999973,0.17,0.17
8.784999999999973,0.17,0.17000000000000035
8.789999999999974,0.17,0.17000000000000112
8.794999999999975,0.17,0.169999999999997
8.799999999999976,0.17,0.17000000000000176
8.804999999999977,0.17,0.16999999999999954
8.809999999999977,0.17,0.16999999999999846
8.814999999999978,0.17,0.17000000000000068
8.819999999999979,0.18,0.16999999999999849
8.82499999999998,0.18,0.16999999999999973
8.82999999999998,0.17,0.16999999999999948
8.834999999999981,0.17,0.1700000000000002
8.839999999999982,0.17,0.170000000000001
8.844999999999983,0.17,0.16999999999999854
8.849999999999984,0.17,0.17000000000000154
8.854999999999984,0.17,0.16999999999999946
8.859999999999985,0.18,0.17000000000000104
8.864999999999986,0.18,0.17000000000000035
8.869999999999987,0.17,0.17000000000000076
8.874999999999988,0.17,0.17000000000000015
8.879999999999988,0.17,0.17000000000000107
8.88499999999999,0.17,0.17
8.88999999999999,0.17,0.1699999999999983
8.89499999999999,0.17,0.16999999999999896
8.899999999999991,0.17,0.17000000000000098
8.904999999999992,0.17,0.1700000000000117
8.909999999999993,0.18,0.16999999999999443
8.914999999999994,0.18,0.16999999999999907
8.919999999999995,0.17,0.1699999999999945
8.924999999999995,0.17,0.17
8.929999999999996,0.17,0.16999999999999987
8.934999999999997,0.17,0.1700000000000003
8.939999999999998,0.17,0.16999999999999926
8.944999999999999,0.17,0.17000000000000007
8.95,0.17,0.1699999999999974
8.955,0.17,0.17000000000000262
8.96,0.17,0.16999999999999965
8.965000000000002,0.17,0.16999999999999824
8.970000000000002,0.18,0.17000000000000237
8.975000000000003,0.18,0.16999999999999846
8.980000000000004,0.17,0.17000000000000431
8.985000000000005,0.17,0.16999999999999932
8.990000000000006,0.17,0.16999999999999924
8.995000000000006,0.17,0.1700000000000015
9.000000000000007,0.17,0.17000000000000015
9.005000000000008,0.17,0.1700000000000012
9.010000000000009,0.17,0.16999999999999993
9.01500000000001,0.17,0.16999999999999896
9.02000000000001,0.18,0.16999999999999948
9.025000000000011,0.18,0.17000000000000032
9.030000000000012,0.17,0.17000000000000093
9.035000000000013,0.17,0.1700000000000014
9.040000000000013,0.17,0.17000000000000165
9.045000000000014,0.17,0.16999999999999943
9.050000000000015,0.17,0.16999999999999804
9.055000000000016,0.17,0.17000000000000048
9.060000000000016,0.17,0.16999999999999996
9.065000000000017,0.17,0.1700000000000001
9.070000000000018,0.18,0.17000000000000084
9.075000000000019,0.18,0.16999999999999893
9.08000000000002,0.17,0.17000000000000004
9.08500000000002,0.17,0.16999999999999962
9.090000000000021,0.17,0.17000000000000118
9.095000000000022,0.17,0.16999999999999882
9.100000000000023,0.17,0.17000000000000007
9.105000000000024,0.17,0.1700000000000004
9.110000000000024,0.18,0.16999999999999993
9.115000000000025,0.18,0.17000000000000004
9.120000000000026,0.17,0.16999999999999976
9.125000000000027,0.17,0.1699999999999988
9.130000000000027,0.17,0.16999999999999935
9.135000000000028,0.17,0.1699999999999994
9.140000000000029,0.17,0.169999999999999
9.14500000000003,0.17,0.1700000000000005
9.15000000000003,0.17,0.16999999999999993
9.155000000000031,0.17,0.16999999999999985
9.160000000000032,0.18,0.1700000000000002
9.165000000000033,0.18,0.1699999999999995
9.170000000000034,0.17,0.1699999999999989
9.175000000000034,0.17,0.1699999999999989
9.180000000000035,0.17,0.1700000000000001
9.185000000000036,0.17,0.17000000000000048
9.190000000000037,0.17,0.16999999999999924
9.195000000000038,0.17,0.1700000000000021
9.200000000000038,0.17,0.17000000000000423
9.20500000000004,0.17,0.17000000000000315
9.21000000000004,0.18,0.1699999999999938
9.21500000000004,0.18,0.17000000000000703
9.220000000000041,0.17,0.1699999999999977
9.225000000000042,0.17,0.17
9.230000000000043,0.17,0.1700000000000002
9.235000000000044,0.17,0.16999999999999904
9.240000000000045,0.17,0.16999999999999993
9.245000000000045,0.17,0.16999999999999932
9.250000000000046,0.17,0.1700000000000006
9.255000000000047,0.17,0.17000000000000012
9.260000000000048,0.17,0.16999999999999924
9.265000000000049,0.17,0.1700000000000048
9.27000000000005,0.18,0.17000000000000504
9.27500000000005,0.18,0.16999999999999799
9.28000000000005,0.17,0.17000000000000245
9.285000000000052,0.17,0.1700000000000001
9.290000000000052,0.17,0.17000000000000054
9.295000000000053,0.17,0.17000000000000284
9.300000000000054,0.17,0.16999999999999613
9.305000000000055,0.17,0.1700000000000002
9.310000000000056,0.17,0.1700000000000008
9.315000000000056,0.17,0.17000000000000018
9.320000000000057,0.17,0.1699999999999987
9.325000000000058,0.17,0.1700000000000003
9.330000000000059,0.17,0.16999999999999724
9.33500000000006,0.17,0.16999999999999793
9.34000000000006,0.17,0.16999999999999385
9.345000000000061,0.17,0.17000000000000112
9.350000000000062,0.17,0.17000000000000132
9.355000000000063,0.17,0.16999999999999993
9.360000000000063,0.18,0.1699999999999971
9.365000000000064,0.18,0.1700000000000038
9.370000000000065,0.17,0.17000000000000215
9.375000000000066,0.17,0.16999999999999035
9.380000000000067,0.17,0.17000000000000792
9.385000000000067,0.17,0.16999999999999538
9.390000000000068,0.17,0.1699999999999998
9.395000000000069,0.17,0.16999999999999874
9.40000000000007,0.17,0.1699999999999999
9.40500000000007,0.17,0.17000000000000046
9.410000000000071,0.18,0.17000000000000004
9.415000000000072,0.18,0.17000000000000087
9.420000000000073,0.17,0.17000000000000073
9.425000000000074,0.17,0.16999999999999973
9.430000000000074,0.17,0.16999999999999682
9.435000000000075,0.17,0.17000000000000162
9.440000000000076,0.17,0.1700000000000003
9.445000000000077,0.17,0.17
9.450000000000077,0.17,0.1700000000000018
9.455000000000078,0.17,0.17000000000000076
9.460000000000079,0.18,0.17000000000000062
9.46500000000008,0.18,0.1700000000000011
9.47000000000008,0.17,0.17000000000000026
9.475000000000081,0.17,0.17
9.480000000000082,0.17,0.16999999999999998
9.485000000000083,0.17,0.1700000000000011
9.490000000000084,0.17,0.16999999999999976
9.495000000000084,0.17,0.1700000000000001
9.500000000000085,0.17,0.16999999999999993
9.505000000000086,0.17,0.16999999999999996
9.510000000000087,0.18,0.17000000000000084
9.515000000000088,0.18,0.17000000000000076
9.520000000000088,0.17,0.1700000000000014
9.52500000000009,0.17,0.17000000000000076
9.53000000000009,0.17,0.17000000000000015
9.53500000000009,0.17,0.1700000000000022
9.540000000000092,0.17,0.16999999999999332
9.545000000000092,0.17,0.17000000000000107
9.550000000000093,0.17,0.17000000000001214
9.555000000000094,0.17,0.17000000000000837
9.560000000000095,0.18,0.1700000000000108
9.565000000000095,0.18,0.16999999999999346
9.570000000000096,0.17,0.16999999999999799
9.575000000000097,0.17,0.17000000000000062
9.580000000000098,0.17,0.1699999999999997
9.585000000000099,0.17,0.1700000000000034
9.5900000000001,0.17,0.16999999999999077
9.5950000000001,0.17,0.1700000000000008
9.600000000000101,0.17,0.1700000000000224
9.605000000000102,0.17,0.16999999999999782
9.610000000000102,0.17,0.17000000000000093
9.615000000000103,0.17,0.16999999999999874
9.620000000000104,0.17,0.17000000000000054
9.625000000000105,0.17,0.16999999999999926
9.630000000000106,0.17,0.16999999999999935
9.635000000000106,0.17,0.1700000000000003
9.640000000000107,0.17,0.1700000000000003
9.645000000000108,0.17,0.1700000000000001
9.650000000000109,0.18,0.16999999999999638
9.65500000000011,0.18,0.1700000000000043
9.66000000000011,0.17,0.1700000000000036
9.665000000000111,0.17,0.1700000000000024
9.670000000000112,0.17,0.1700000000000003
9.675000000000113,0.17,0.1699999999999996
9.680000000000113,0.17,0.1699999999999994
9.685000000000114,0.17,0.1700000000000004
9.690000000000115,0.17,0.16999999999999987
9.695000000000116,0.17,0.17000000000000237
9.700000000000117,0.18,0.1700000000000004
9.705000000000117,0.18,0.17
9.710000000000118,0.17,0.17000000000000043
9.715000000000119,0.17,0.17000000000000098
9.72000000000012,0.17,0.17000000000000087
9.72500000000012,0.17,0.17000000000000023
9.730000000000121,0.17,0.17000000000000007
9.735000000000122,0.17,0.1700000000000003
9.740000000000123,0.17,0.1699999999999995
9.745000000000124,0.17,0.17
9.750000000000124,0.18,0.17
9.755000000000125,0.18,0.1700000000000011
9.760000000000126,0.17,0.1699999999999982
9.765000000000127,0.17,0.17000000000000054
9.770000000000127,0.17,0.17000000000000165
9.775000000000128,0.17,0.16999999999999998
9.780000000000129,0.17,0.16999999999999987
9.78500000000013,0.17,0.1699999999999997
9.79000000000013,0.17,0.169999999999999
9.795000000000131,0.17,0.16999999999999643
9.800000000000132,0.18,0.1699999999999961
9.805000000000133,0.18,0.17000000000000276
9.810000000000134,0.17,0.1699999999999992
9.815000000000135,0.17,0.17
9.820000000000135,0.17,0.16999999999999965
9.825000000000136,0.17,0.17000000000000065
9.830000000000137,0.17,0.16999999999999865
9.835000000000138,0.17,0.1700000000000006
9.840000000000138,0.17,0.16999999999999998
9.84500000000014,0.17,0.17000000000000257
9.85000000000014,0.17,0.16999999999999713
9.85500000000014,0.17,0.17000000000000193
9.860000000000142,0.17,0.16999999999999652
9.865000000000142,0.17,0.17000000000000406
9.870000000000143,0.17,0.16999999999999735
9.875000000000144,0.17,0.16999999999999998
9.880000000000145,0.17,0.16999999999999868
9.885000000000145,0.17,0.17000000000000093
9.890000000000146,0.18,0.16999999999999907
9.895000000000147,0.18,0.16999999999999688
9.900000000000148,0.17,0.16999999999999346
9.905000000000149,0.17,0.16999999999998794
9.91000000000015,0.17,0.17000000000000154
9.91500000000015,0.17,0.17000000000000937
9.920000000000151,0.17,0.1699999999999985
9.925000000000152,0.17,0.17000000000000126
9.930000000000152,0.17,0.16999999999999904
9.935000000000153,0.17,0.17000000000000434
9.940000000000154,0.17,0.17000000000000617
9.945000000000155,0.17,0.17000000000000737
9.950000000000156,0.18,0.16999999999999352
9.955000000000156,0.18,0.17000000000000673
9.960000000000157,0.17,0.17000000000000684
9.965000000000158,0.17,0.1700000000000103
9.970000000000159,0.17,0.17000000000000554
9.97500000000016,0.17,0.16999999999999532
9.98000000000016,0.17,0.17000000000001192
9.985000000000161,0.17,0.17000000000002566
9.990000000000162,0.17,0.17000000000001392
9.995000000000163,0.17,0.1700000000000238
10.000000000000163,0.17,0.169999999999977
