time,voltage,lowess
0.005,3.4,3.3316502432721387
0.01,3.4,3.2448427219593965
0.015,3.45,3.1611726710674604
0.02,3.45,3.080830975442002
0.025,1.9,3.0035593792715924
0.030000000000000002,1.9,2.9285778485385094
0.035,2.85,2.8551116116980526
0.04,2.85,2.7825123240847778
0.045,2.5,2.70976723953984
0.049999999999999996,2.5,2.6377488374140583
0.05499999999999999,2.25,2.609359528503347
0.05999999999999999,2.25,2.6020988789155064
0.06499999999999999,3.56,2.611406416027196
0.06999999999999999,3.56,2.629542776140469
0.075,1.99,2.6521074724881983
0.08,1.99,2.6801230529740514
0.085,2.83,2.7112020611752503
0.09000000000000001,2.83,2.737921962322779
0.09500000000000001,2.89,2.7557835467272427
0.10000000000000002,2.89,2.765935639881438
0.10500000000000002,2.69,2.770738703196021
0.11000000000000003,2.69,2.7724384195635756
0.11500000000000003,3.66,2.7687771491294813
0.12000000000000004,3.66,2.7542896762432756
0.12500000000000003,2.08,2.730071152286296
0.13000000000000003,2.08,2.7029415333635534
0.13500000000000004,3.01,2.676594913355941
0.14000000000000004,3.01,2.6508962654879644
0.14500000000000005,2.57,2.626126399724191
0.15000000000000005,2.57,2.602281249186925
0.15500000000000005,1.89,2.5786148634524455
0.16000000000000006,1.89,2.557077227579316
0.16500000000000006,3.36,2.543245508610551
0.17000000000000007,3.36,2.539466656315882
0.17500000000000007,2.29,2.5462514904612434
0.18000000000000008,2.29,2.5665892686628484
0.18500000000000008,2.62,2.598455152519114
0.19000000000000009,2.62,2.6330213387011745
0.1950000000000001,2.21,2.6646735633147305
0.2000000000000001,2.21,2.6925002389542403
0.2050000000000001,3.02,2.7142174658405205
0.2100000000000001,3.02,2.729546857229816
0.2150000000000001,3.37,2.7394398639837703
0.2200000000000001,3.37,2.7442169969532237
0.22500000000000012,2.18,2.7461297830426945
0.23000000000000012,2.18,2.746906448242002
0.23500000000000013,3.53,2.7448583586596813
0.24000000000000013,3.53,2.7373746784684845
0.24500000000000013,2.2,2.72612321453329
0.2500000000000001,2.2,2.7171585740243342
0.2550000000000001,2.47,2.7151185724740046
0.2600000000000001,2.47,2.7190491687474854
0.2650000000000001,2.96,2.7262556380161795
0.27000000000000013,2.96,2.7349652491599272
0.27500000000000013,2.64,2.7491466253200714
0.28000000000000014,2.64,2.775458367796401
0.28500000000000014,3.46,2.8087827848731104
0.29000000000000015,3.46,2.835899255363684
0.29500000000000015,2.13,2.8508552975855195
0.30000000000000016,2.13,2.855663919055031
0.30500000000000016,2.92,2.8517587864790896
0.31000000000000016,2.92,2.8407046052183293
0.31500000000000017,3.55,2.8246224515873206
0.3200000000000002,3.55,2.805396766889844
0.3250000000000002,2.11,2.7881893515440854
0.3300000000000002,2.11,2.7786176063799535
0.3350000000000002,3.15,2.776035196564411
0.3400000000000002,3.15,2.7722035405954766
0.3450000000000002,2.51,2.7602300592835696
0.3500000000000002,2.51,2.7432369657767164
0.3550000000000002,2.41,2.730074870517617
0.3600000000000002,2.41,2.725941874418753
0.3650000000000002,3.44,2.730890782284542
0.3700000000000002,3.44,2.741322485181016
0.3750000000000002,2.51,2.756142809546688
0.3800000000000002,2.51,2.778654025351222
0.38500000000000023,2.69,2.806064811919277
0.39000000000000024,2.69,2.8275375874086013
0.39500000000000024,2.91,2.836037973422705
0.40000000000000024,2.91,2.8348593191946843
0.40500000000000025,2.81,2.8326032692923144
0.41000000000000025,2.81,2.8354814646825566
0.41500000000000026,3.55,2.8409058275440353
0.42000000000000026,3.55,2.842031540153788
0.42500000000000027,2.01,2.8368392180184085
0.43000000000000027,2.01,2.826777479259591
0.4350000000000003,2.94,2.8111894185057444
0.4400000000000003,2.94,2.7899035988818657
0.4450000000000003,3.03,2.765294099689146
0.4500000000000003,3.03,2.7412688636193887
0.4550000000000003,2.14,2.72495267962015
0.4600000000000003,2.14,2.722250884265676
0.4650000000000003,3.15,2.731164251874338
0.4700000000000003,3.15,2.7427285251512785
0.4750000000000003,2.39,2.750178259668752
0.4800000000000003,2.39,2.7544346910014226
0.4850000000000003,2.62,2.7578969754753464
0.4900000000000003,2.62,2.760468042517709
0.49500000000000033,3.42,2.7626697249967527
0.5000000000000003,3.42,2.7654760406023713
0.5050000000000003,2.63,2.771759578119779
0.5100000000000003,2.63,2.785618212178479
0.5150000000000003,2.88,2.8028642519631424
0.5200000000000004,2.88,2.8120976765826593
0.5250000000000004,2.38,2.8080959260390075
0.5300000000000004,2.38,2.794340864980893
0.5350000000000004,2.91,2.774690472719416
0.5400000000000004,2.91,2.7531523779134712
0.5450000000000004,3.48,2.7342711126955437
0.5500000000000004,3.48,2.7194931158304403
0.5550000000000004,2.16,2.70956182289973
0.5600000000000004,2.16,2.7050690104490616
0.5650000000000004,2.95,2.7043454427716553
0.5700000000000004,2.95,2.7042024888472533
0.5750000000000004,2.26,2.705208904456712
0.5800000000000004,2.26,2.71388964268384
0.5850000000000004,2.56,2.733557445428043
0.5900000000000004,2.56,2.759089113136829
0.5950000000000004,3.07,2.7848594771294413
0.6000000000000004,3.07,2.8079484239917885
0.6050000000000004,2.83,2.825378288830619
0.6100000000000004,2.83,2.8372459917464448
0.6150000000000004,3.72,2.8430620260586905
0.6200000000000004,3.72,2.840471082896223
0.6250000000000004,2.01,2.830712047567818
0.6300000000000004,2.01,2.8160821326092282
0.6350000000000005,3.15,2.7960131609486822
0.6400000000000005,3.15,2.7719822663618494
0.6450000000000005,2.57,2.7500074649831014
0.6500000000000005,2.57,2.7334482507815596
0.6550000000000005,2.3,2.722782361908782
0.6600000000000005,2.3,2.7193292140195595
0.6650000000000005,3.39,2.7264327971801263
0.6700000000000005,3.39,2.7445137790879266
0.6750000000000005,2.33,2.7716250683692554
0.6800000000000005,2.33,2.8077206821059684
0.6850000000000005,3.04,2.849912783381888
0.6900000000000005,3.04,2.8887430244753203
0.6950000000000005,2.53,2.9129141752513905
0.7000000000000005,2.53,2.9189318602470635
0.7050000000000005,3.53,2.9131921444454196
0.7100000000000005,3.53,2.9055093897534707
0.7150000000000005,3.25,2.8984987875428327
0.7200000000000005,3.25,2.8883731040012095
0.7250000000000005,1.62,2.873643099647012
0.7300000000000005,1.62,2.8554025820968936
0.7350000000000005,2.81,2.8314051399553803
0.7400000000000005,2.81,2.7969937462075865
0.7450000000000006,2.82,2.7531867779349186
0.7500000000000006,2.82,2.7101520731049966
0.7550000000000006,2.28,2.679210853002579
0.7600000000000006,2.28,2.661753808662599
0.7650000000000006,3.43,2.6527743896752494
0.7700000000000006,3.43,2.6473678325830154
0.7750000000000006,2.26,2.6449092484144443
0.7800000000000006,2.26,2.6478189528557423
0.7850000000000006,2.6,2.654188076777996
0.7900000000000006,2.6,2.6591010203238605
0.7950000000000006,2.7,2.6610175592884406
0.8000000000000006,2.7,2.6614924389596646
0.8050000000000006,2.53,2.6632011311078574
0.8100000000000006,2.53,2.6691631026602174
0.8150000000000006,3.51,2.677555903801142
0.8200000000000006,3.51,2.6833089863836443
0.8250000000000006,2.05,2.685594360474449
0.8300000000000006,2.05,2.6866116857828675
0.8350000000000006,2.92,2.685765296639212
0.8400000000000006,2.92,2.6808417502267368
0.8450000000000006,2.74,2.6706925189437865
0.8500000000000006,2.74,2.6557665476887258
0.8550000000000006,2.21,2.6392825815986787
0.8600000000000007,2.21,2.624914091509122
0.8650000000000007,3.44,2.6112163613627093
0.8700000000000007,3.44,2.5928297169141903
0.8750000000000007,2.34,2.570434992640834
0.8800000000000007,2.34,2.55246560672462
0.8850000000000007,2.49,2.5452585352206065
0.8900000000000007,2.49,2.5481781096884606
0.8950000000000007,2.64,2.559526642405225
0.9000000000000007,2.64,2.5788925623598833
0.9050000000000007,1.75,2.607540458429841
0.9100000000000007,1.75,2.647114709190822
0.9150000000000007,2.94,2.6923269834469776
0.9200000000000007,2.94,2.734257361760502
0.9250000000000007,2.72,2.770246559269748
0.9300000000000007,2.72,2.8027937974954686
0.9350000000000007,3.16,2.8314170788332893
0.9400000000000007,3.16,2.8522957444258625
0.9450000000000007,3.31,2.8594554721467325
0.9500000000000007,3.31,2.849603013333154
0.9550000000000007,2.16,2.8275158053648384
0.9600000000000007,2.16,2.799564600283914
0.9650000000000007,3.17,2.765947400953808
0.9700000000000008,3.17,2.7242676959920744
0.9750000000000008,2.51,2.6772557409737443
0.9800000000000008,2.51,2.632758660529569
0.9850000000000008,2.25,2.6012873908747913
0.9900000000000008,2.25,2.5873973564617674
0.9950000000000008,3.63,2.587398521031374
1.0000000000000007,3.63,2.593746180107174
1.0050000000000006,1.86,2.599865995659319
1.0100000000000005,1.86,2.6057707470244598
1.0150000000000003,2.53,2.6134534553102364
1.0200000000000002,2.53,2.620204043078211
1.0250000000000001,3.14,2.6225132039645334
1.03,3.14,2.6224206439196944
1.035,2.61,2.6272530530883866
1.0399999999999998,2.61,2.6440094592711967
1.0449999999999997,2.74,2.6679494084683277
1.0499999999999996,2.74,2.6860841204659494
1.0549999999999995,2.13,2.693996990268167
1.0599999999999994,2.13,2.696335233111072
1.0649999999999993,2.76,2.6952175193147947
1.0699999999999992,2.76,2.690892470900957
1.074999999999999,3.35,2.685007731282796
1.079999999999999,3.35,2.679625576819941
1.0849999999999989,2.24,2.678478231252805
1.0899999999999987,2.24,2.682262045680617
1.0949999999999986,3.28,2.6845823210899225
1.0999999999999985,3.28,2.6782879914402176
1.1049999999999984,2.17,2.6619820152145492
1.1099999999999983,2.17,2.639773956233313
1.1149999999999982,2.45,2.616274104253941
1.119999999999998,2.45,2.594723100496872
1.124999999999998,3.19,2.5785832764307557
1.129999999999998,3.19,2.5680059765436285
1.1349999999999978,2.16,2.562023269418506
1.1399999999999977,2.16,2.5624731611693035
1.1449999999999976,2.78,2.566840724419642
1.1499999999999975,2.78,2.567041390900234
1.1549999999999974,2.26,2.5602712599147637
1.1599999999999973,2.26,2.551502070950206
1.1649999999999971,2.71,2.543914859968556
1.169999999999997,2.71,2.5374693950232206
1.174999999999997,2.73,2.530878075524312
1.1799999999999968,2.73,2.522294747139425
1.1849999999999967,2.06,2.5148356805664305
1.1899999999999966,2.06,2.5140380751751312
1.1949999999999965,3.13,2.5195228834777748
1.1999999999999964,3.13,2.526531450477482
1.2049999999999963,2.0,2.533878956445376
1.2099999999999962,2.0,2.5430551391445007
1.214999999999996,2.38,2.5530385463384024
1.219999999999996,2.38,2.560758700574126
1.2249999999999959,3.42,2.5623012015647
1.2299999999999958,3.42,2.554738371930282
1.2349999999999957,2.29,2.542024993275833
1.2399999999999956,2.29,2.532604829206746
1.2449999999999954,3.0,2.525283359681079
1.2499999999999953,3.0,2.5112455663159086
1.2549999999999952,2.3,2.4891351898503857
1.2599999999999951,2.3,2.463922281907026
1.264999999999995,1.36,2.440088175425934
1.269999999999995,1.36,2.4204393448029498
1.2749999999999948,3.29,2.405811695815983
1.2799999999999947,3.29,2.3947317056806083
1.2849999999999946,1.84,2.388800615904868
1.2899999999999945,1.84,2.394265752911729
1.2949999999999944,2.62,2.4134028041080215
1.2999999999999943,2.62,2.4375149117074786
1.3049999999999942,2.51,2.453491717849193
1.309999999999994,2.51,2.457488200462244
1.314999999999994,2.27,2.456436507666682
1.3199999999999938,2.27,2.4593260587061656
1.3249999999999937,3.23,2.4674559480693734
1.3299999999999936,3.23,2.474820561796731
1.3349999999999935,1.96,2.4775098374713616
1.3399999999999934,1.96,2.477178722094526
1.3449999999999933,2.42,2.4750480900093565
1.3499999999999932,2.42,2.469776022838219
1.354999999999993,2.76,2.4617566893923373
1.359999999999993,2.76,2.453791360456659
1.3649999999999929,2.22,2.4497623162880307
1.3699999999999928,2.22,2.452585980042275
1.3749999999999927,2.72,2.459081796371366
1.3799999999999926,2.72,2.4613123198147333
1.3849999999999925,2.16,2.455973779505101
1.3899999999999924,2.16,2.4464626743679987
1.3949999999999922,2.56,2.4350387251068257
1.3999999999999921,2.56,2.4218004382449725
1.404999999999992,2.6,2.4065214461744473
1.409999999999992,2.6,2.388861350242998
1.4149999999999918,2.06,2.372297982285617
1.4199999999999917,2.06,2.3617528354166994
1.4249999999999916,2.7,2.355806389911022
1.4299999999999915,2.7,2.3487709906270537
1.4349999999999914,1.99,2.33976649088192
1.4399999999999913,1.99,2.3312967706868153
1.4449999999999912,2.15,2.322268795127207
1.449999999999991,2.15,2.310842294389606
1.454999999999991,3.19,2.2988615244566115
1.4599999999999909,3.19,2.289190671451607
1.4649999999999908,1.89,2.2842772729152605
1.4699999999999906,1.89,2.2860722370586375
1.4749999999999905,2.61,2.2921583615250176
1.4799999999999904,2.61,2.296024041643456
1.4849999999999903,1.83,2.2947709410348667
1.4899999999999902,1.83,2.292042176084323
1.4949999999999901,2.35,2.2913086891268755
1.49999999999999,2.35,2.2935495055530475
1.50499999999999,2.57,2.299024437748345
1.5099999999999898,2.57,2.305199477543902
1.5149999999999897,1.95,2.3079673569756927
1.5199999999999896,1.95,2.3076044277587227
1.5249999999999895,2.96,2.306902778964547
1.5299999999999894,2.96,2.305982554696831
1.5349999999999893,1.91,2.3056757729513575
1.5399999999999892,1.91,2.308810840150158
1.544999999999989,2.43,2.314851633541363
1.549999999999989,2.43,2.321302080795436
1.5549999999999888,2.08,2.329160428966409
1.5599999999999887,2.08,2.3385813894249803
1.5649999999999886,2.33,2.3461692251917556
1.5699999999999885,2.33,2.351156625765622
1.5749999999999884,2.98,2.354573520411839
1.5799999999999883,2.98,2.356242776832608
1.5849999999999882,1.89,2.3585431374590726
1.589999999999988,1.89,2.364359665742044
1.594999999999988,2.89,2.370720485130934
1.5999999999999879,2.89,2.372043488257093
1.6049999999999878,1.89,2.366936157512586
1.6099999999999877,1.89,2.3577813969267982
1.6149999999999876,2.22,2.34698327914798
1.6199999999999875,2.22,2.3369777540106713
1.6249999999999873,2.97,2.330436854717478
1.6299999999999872,2.97,2.3273640831400715
1.6349999999999871,1.94,2.329327109040846
1.639999999999987,1.94,2.3407167274670817
1.644999999999987,2.59,2.3590871667657636
1.6499999999999868,2.59,2.3747290695248613
1.6549999999999867,2.04,2.3828506113023784
1.6599999999999866,2.04,2.3866760977480257
1.6649999999999865,2.37,2.3891641490079945
1.6699999999999864,2.37,2.391743064562529
1.6749999999999863,3.04,2.3954655418437123
1.6799999999999862,3.04,2.3994069511411364
1.684999999999986,1.97,2.4043575055767934
1.689999999999986,1.97,2.412781001316752
1.6949999999999859,2.77,2.422134178192355
1.6999999999999857,2.77,2.426355285260896
1.7049999999999856,2.09,2.424283249162177
1.7099999999999855,2.09,2.4197074396859417
1.7149999999999854,2.31,2.4141522040847603
1.7199999999999853,2.31,2.407202773958223
1.7249999999999852,2.93,2.3997255359161436
1.729999999999985,2.93,2.392533955295041
1.734999999999985,2.01,2.3891902662002154
1.739999999999985,2.01,2.394328502915895
1.7449999999999848,2.84,2.405090925746987
1.7499999999999847,2.84,2.4127326528824424
1.7549999999999846,1.79,2.4114216760083393
1.7599999999999845,1.79,2.4025963869842966
1.7649999999999844,2.39,2.3932107133626888
1.7699999999999843,2.39,2.39007697577285
1.7749999999999841,3.09,2.3954310868826556
1.779999999999984,3.09,2.4066569898561427
1.784999999999984,1.97,2.4229060630115704
1.7899999999999838,1.97,2.4466518514793716
1.7949999999999837,2.42,2.474207996851289
1.7999999999999836,2.42,2.4950089602688577
1.8049999999999835,2.63,2.5045342621847646
1.8099999999999834,2.63,2.5077004116653643
1.8149999999999833,2.37,2.5079905432871654
1.8199999999999832,2.37,2.5055687303431404
1.824999999999983,3.38,2.5011514781259785
1.829999999999983,3.38,2.4944599553177214
1.8349999999999829,2.15,2.486172421403824
1.8399999999999828,2.15,2.478297777009987
1.8449999999999827,2.69,2.46900854070864
1.8499999999999825,2.69,2.4551199498738803
1.8549999999999824,1.99,2.4366332909930453
1.8599999999999823,1.99,2.414456715658414
1.8649999999999822,2.34,2.390410402202308
1.8699999999999821,2.34,2.3687109445381895
1.874999999999982,3.15,2.352435686661028
1.879999999999982,3.15,2.3408703535362405
1.8849999999999818,1.93,2.3339967669277177
1.8899999999999817,1.93,2.3337683943531413
1.8949999999999816,2.45,2.3370414680735285
1.8999999999999815,2.45,2.3358275475445454
1.9049999999999814,2.14,2.327248404735142
1.9099999999999813,2.14,2.3159736252429903
1.9149999999999812,2.18,2.3075708016923335
1.919999999999981,2.18,2.305165178219759
1.924999999999981,3.36,2.309375787163638
1.9299999999999808,3.36,2.317933564639399
1.9349999999999807,1.91,2.329752788748775
1.9399999999999806,1.91,2.345791250404025
1.9449999999999805,2.48,2.3630491613899687
1.9499999999999804,2.48,2.375301691299208
1.9549999999999803,2.29,2.3792778142885713
1.9599999999999802,2.29,2.377807326599264
1.96499999999998,2.3,2.378161882937898
1.96999999999998,2.3,2.385850614654133
1.9749999999999799,3.02,2.3985093118945398
1.9799999999999798,3.02,2.4093162530770322
1.9849999999999797,1.9,2.415005019415236
1.9899999999999796,1.9,2.416679925353079
1.9949999999999795,2.47,2.4135439972371464
1.9999999999999793,2.47,2.402958335641355
2.0049999999999795,2.69,2.3854231827022048
2.0099999999999794,2.69,2.365906473305733
2.0149999999999793,2.06,2.3525969495457275
2.019999999999979,2.06,2.351600452347621
2.024999999999979,2.63,2.3604265888290032
2.029999999999979,2.63,2.36912067234322
2.034999999999979,1.87,2.369875859594349
2.0399999999999787,1.87,2.362481228048542
2.0449999999999786,2.35,2.3501241861201105
2.0499999999999785,2.35,2.336787515809786
2.0549999999999784,3.27,2.3277659658304803
2.0599999999999783,3.27,2.3250122249537797
2.064999999999978,2.13,2.3266419760905603
2.069999999999978,2.13,2.331233917818888
2.074999999999978,2.29,2.3351232215772093
2.079999999999978,2.29,2.331609258041886
2.0849999999999778,2.04,2.320004308556068
2.0899999999999777,2.04,2.3091305427660473
2.0949999999999775,2.52,2.3064119938136827
2.0999999999999774,2.52,2.310953191253887
2.1049999999999773,2.37,2.317978648956107
2.1099999999999772,2.37,2.3248008172180232
2.114999999999977,2.02,2.3352603983313927
2.119999999999977,2.02,2.352854036026159
2.124999999999977,3.31,2.3738129344144983
2.129999999999977,3.31,2.3937890578033163
2.1349999999999767,1.89,2.414456902744573
2.1399999999999766,1.89,2.438207195187589
2.1449999999999765,2.31,2.461752202325615
2.1499999999999764,2.31,2.479745386091176
2.1549999999999763,3.15,2.491462274912004
2.159999999999976,3.15,2.499555468354394
2.164999999999976,2.17,2.5060300669394033
2.169999999999976,2.17,2.513002139391143
2.174999999999976,3.2,2.5199744057291835
2.1799999999999757,3.2,2.5218654813343413
2.1849999999999756,1.92,2.515570388632531
2.1899999999999755,1.92,2.503834539005221
2.1949999999999754,2.71,2.4900152618912177
2.1999999999999753,2.71,2.476612266839684
2.204999999999975,2.41,2.4652900318728856
2.209999999999975,2.41,2.453881805693188
2.214999999999975,2.16,2.441416763543477
2.219999999999975,2.16,2.4319180332535213
2.2249999999999748,3.28,2.4281230713801962
2.2299999999999747,3.28,2.4274326569067894
2.2349999999999746,2.01,2.4282178425071947
2.2399999999999745,2.01,2.432627069771266
2.2449999999999743,2.46,2.4394350986912166
2.2499999999999742,2.46,2.443485694829094
2.254999999999974,2.44,2.4432681202902335
2.259999999999974,2.44,2.4413943545146735
2.264999999999974,2.36,2.439529981049338
2.269999999999974,2.36,2.4387413655020564
2.2749999999999737,2.95,2.4384808398627196
2.2799999999999736,2.95,2.4357757592101925
2.2849999999999735,1.89,2.4296293395853983
2.2899999999999734,1.89,2.4218353270348993
2.2949999999999733,2.81,2.4113963893604557
2.299999999999973,2.81,2.395394517988658
2.304999999999973,2.17,2.374498561729472
2.309999999999973,2.17,2.3527355608982465
2.314999999999973,2.2,2.33649290263454
2.3199999999999728,2.2,2.330236563416434
2.3249999999999726,3.59,2.333222996636824
2.3299999999999725,3.59,2.3407947681220618
2.3349999999999724,1.84,2.3511239392835717
2.3399999999999723,1.84,2.3671899125723614
2.344999999999972,2.35,2.388411979165198
2.349999999999972,2.35,2.4081288871124245
2.354999999999972,2.64,2.4219303210993344
2.359999999999972,2.64,2.4321242752659624
2.364999999999972,2.35,2.441881247314562
2.3699999999999717,2.35,2.45174749657318
2.3749999999999716,3.2,2.4581570025483725
2.3799999999999715,3.2,2.456239970179437
2.3849999999999714,1.83,2.445204317689
2.3899999999999713,1.83,2.4284344409221346
2.394999999999971,2.64,2.4087546547567062
2.399999999999971,2.64,2.387602172081324
2.404999999999971,2.39,2.3657553564069134
2.409999999999971,2.39,2.343843827288781
2.4149999999999707,1.89,2.3269472999626344
2.4199999999999706,1.89,2.3212961310624203
2.4249999999999705,2.68,2.324482023662573
2.4299999999999704,2.68,2.3273628999514036
2.4349999999999703,2.17,2.3256340251816656
2.43999999999997,2.17,2.3229824811346647
2.44499999999997,2.14,2.3233399662442396
2.44999999999997,2.14,2.325720294632807
2.45499999999997,3.06,2.3269832860396007
2.4599999999999698,3.06,2.3262791670463705
2.4649999999999697,1.88,2.3268462761690465
2.4699999999999696,1.88,2.332952330703702
2.4749999999999694,2.45,2.343117251973775
2.4799999999999693,2.45,2.3504733291850095
2.4849999999999692,2.28,2.3511319641749386
2.489999999999969,2.28,2.348157693223134
2.494999999999969,2.21,2.349210159308056
2.499999999999969,2.21,2.3601433621144285
2.504999999999969,2.97,2.378384147413346
2.5099999999999687,2.97,2.3961608327123254
2.5149999999999686,1.86,2.4097859728914064
2.5199999999999685,1.86,2.4204553824214114
2.5249999999999684,2.49,2.427164296218288
2.5299999999999683,2.49,2.4267960091588585
2.534999999999968,2.8,2.4187344770039627
2.539999999999968,2.8,2.4066577335465604
2.544999999999968,2.09,2.3980622934685663
2.549999999999968,2.09,2.398693495341474
2.5549999999999677,2.75,2.406144694146547
2.5599999999999676,2.75,2.4118131653090713
2.5649999999999675,1.93,2.410900086356383
2.5699999999999674,1.93,2.4053783918944385
2.5749999999999673,2.32,2.397213020702564
2.579999999999967,2.32,2.387204528538248
2.584999999999967,2.99,2.3773172120288164
2.589999999999967,2.99,2.3691345827781376
2.594999999999967,2.11,2.365699468830781
2.599999999999967,2.11,2.3705760756570426
2.6049999999999667,2.6,2.3798275740838575
2.6099999999999666,2.6,2.3836104032843073
2.6149999999999665,1.94,2.3779209786863325
2.6199999999999664,1.94,2.366125650796537
2.6249999999999662,2.32,2.3513062266801605
2.629999999999966,2.32,2.336174987773915
2.634999999999966,3.23,2.3240602093435325
2.639999999999966,3.23,2.3161423015678393
2.644999999999966,1.89,2.314314010810318
2.6499999999999657,1.89,2.3208110582312784
2.6549999999999656,2.56,2.331929016785631
2.6599999999999655,2.56,2.339445326774201
2.6649999999999654,1.98,2.338987809025438
2.6699999999999653,1.98,2.334848451127089
2.674999999999965,2.22,2.3366304430161633
2.679999999999965,2.22,2.3506697989056597
2.684999999999965,3.14,2.3759849515480265
2.689999999999965,3.14,2.4070825479310543
2.6949999999999648,1.97,2.4405934848143054
2.6999999999999647,1.97,2.4762279382120465
2.7049999999999645,2.49,2.5094827712032486
2.7099999999999644,2.49,2.5319650634409236
2.7149999999999643,2.82,2.5403891180926683
2.7199999999999642,2.82,2.5393709858567375
2.724999999999964,2.47,2.5338505858172367
2.729999999999964,2.47,2.526461107971099
2.734999999999964,3.01,2.5180570742820674
2.739999999999964,3.01,2.506196257180726
2.7449999999999637,1.92,2.490504739852372
2.7499999999999636,1.92,2.4744221253984304
2.7549999999999635,2.64,2.4589544018078744
2.7599999999999634,2.64,2.443528264256575
2.7649999999999633,2.19,2.429657201053676
2.769999999999963,2.19,2.4185112233272306
2.774999999999963,2.27,2.4120509441642928
2.779999999999963,2.27,2.4132083019749024
2.784999999999963,3.2,2.4217084416998507
2.7899999999999627,3.2,2.4335285788677066
2.7949999999999626,1.99,2.446342612556292
2.7999999999999625,1.99,2.46119362160284
2.8049999999999624,2.54,2.4755013551588743
2.8099999999999623,2.54,2.483111263635509
2.814999999999962,2.55,2.4824078819169317
2.819999999999962,2.55,2.4773962665328075
2.824999999999962,2.37,2.470772043705563
2.829999999999962,2.37,2.4632605559807037
2.8349999999999618,2.92,2.454933758293663
2.8399999999999617,2.92,2.4441657238227052
2.8449999999999616,1.95,2.4321062320978295
2.8499999999999615,1.95,2.4224321917948637
2.8549999999999613,2.75,2.4145318920408463
2.8599999999999612,2.75,2.4058544930171992
2.864999999999961,2.04,2.3976300787742026
2.869999999999961,2.04,2.3915226630640043
2.874999999999961,2.26,2.3869913122930106
2.879999999999961,2.26,2.384857396711859
2.8849999999999607,2.98,2.3874243665792365
2.8899999999999606,2.98,2.394705043809777
2.8949999999999605,1.94,2.4075431767256443
2.8999999999999604,1.94,2.4286135195924716
2.9049999999999603,2.73,2.454524484383929
2.90999999999996,2.73,2.4759886303498924
2.91499999999996,2.16,2.4870096559965225
2.91999999999996,2.16,2.4888139145854256
2.92499999999996,2.56,2.484981813096051
2.9299999999999597,2.56,2.480530345464929
2.9349999999999596,3.17,2.4823828129056653
2.9399999999999595,3.17,2.490585971958621
2.9449999999999594,2.08,2.4972244515155952
2.9499999999999593,2.08,2.497365813451673
2.954999999999959,2.55,2.4924652396584523
2.959999999999959,2.55,2.4835346781029624
2.964999999999959,2.19,2.4690731792516045
2.969999999999959,2.19,2.4524091420228102
2.974999999999959,3.46,2.444247514328305
2.9799999999999587,3.46,2.453226101425582
2.9849999999999586,1.95,2.4806057366876786
2.9899999999999585,1.95,2.518581028968467
2.9949999999999584,2.65,2.558124847014342
2.9999999999999583,2.65,2.5992100653118175
3.004999999999958,2.27,2.6416393242954843
3.009999999999958,2.27,2.676223248272697
3.014999999999958,3.05,2.691075780016704
3.019999999999958,3.05,2.686067518421915
3.0249999999999577,3.08,2.674104533330306
3.0299999999999576,3.08,2.6642019327661157
3.0349999999999575,0.89,2.6546892740910812
3.0399999999999574,0.89,2.642446163742928
3.0449999999999573,2.66,2.6235506868007037
3.049999999999957,2.66,2.591648886084793
3.054999999999957,1.91,2.543127884808381
3.059999999999957,1.91,2.483584653965244
3.064999999999957,2.67,2.426805668728127
3.0699999999999568,2.67,2.3831669316502215
3.0749999999999567,2.41,2.3565621823809475
3.0799999999999566,2.41,2.3447102726495457
3.0849999999999564,2.17,2.341203476936052
3.0899999999999563,2.17,2.341731079629251
3.0949999999999562,2.35,2.3449825689915946
3.099999999999956,2.35,2.3483289522806
3.104999999999956,2.11,2.3475871455347286
3.109999999999956,2.11,2.343240486629252
3.114999999999956,2.7,2.3387934944969797
3.1199999999999557,2.7,2.336369147697218
3.1249999999999556,2.22,2.339466780748677
3.1299999999999555,2.22,2.3496567182294776
3.1349999999999554,2.59,2.3623314724343607
3.1399999999999553,2.59,2.372489109744472
3.144999999999955,2.03,2.3785756269957963
3.149999999999955,2.03,2.3809369280936754
3.154999999999955,2.22,2.382732599816164
3.159999999999955,2.22,2.388282789054073
3.1649999999999547,3.18,2.398644971054461
3.1699999999999546,3.18,2.412082241094499
3.1749999999999545,2.01,2.42838297042778
3.1799999999999544,2.01,2.447631610724551
3.1849999999999543,2.54,2.4651610821858934
3.189999999999954,2.54,2.4733037707606953
3.194999999999954,2.68,2.4683240193679516
3.199999999999954,2.68,2.4550073590619195
3.204999999999954,2.26,2.4436109015454783
3.209999999999954,2.26,2.441802220281653
3.2149999999999537,2.81,2.446458011800195
3.2199999999999536,2.81,2.446895265673207
3.2249999999999535,1.88,2.4381753043337446
3.2299999999999534,1.88,2.4234136174296297
3.2349999999999532,2.42,2.407491364500601
3.239999999999953,2.42,2.3933947784508542
3.244999999999953,3.43,2.3819885001156353
3.249999999999953,3.43,2.373392920980515
3.254999999999953,1.92,2.3690363236429777
3.2599999999999527,1.92,2.3705013047285304
3.2649999999999526,2.47,2.3747341924559002
3.2699999999999525,2.47,2.373953639147291
3.2749999999999524,2.33,2.364721045502335
3.2799999999999523,2.33,2.3539352925248105
3.284999999999952,2.21,2.3501209052422496
3.289999999999952,2.21,2.35560187431921
3.294999999999952,2.71,2.3688023476709525
3.299999999999952,2.71,2.3850191645810246
3.3049999999999518,1.98,2.3983309906660613
3.3099999999999516,1.98,2.4068721019928687
3.3149999999999515,2.63,2.4100650016218297
3.3199999999999514,2.63,2.4073991037695524
3.3249999999999513,2.4,2.402395041721333
3.329999999999951,2.4,2.399173514469919
3.334999999999951,2.58,2.3977724031929712
3.339999999999951,2.58,2.3967889870608317
3.344999999999951,2.32,2.394318051657327
3.349999999999951,2.32,2.3874199529895574
3.3549999999999507,1.98,2.3774155380897946
3.3599999999999506,1.98,2.370365693336544
3.3649999999999505,2.89,2.3694394497053906
3.3699999999999504,2.89,2.3719155866782313
3.3749999999999503,2.08,2.37386275547741
3.37999999999995,2.08,2.373163908461246
3.38499999999995,2.29,2.3683788555815286
3.38999999999995,2.29,2.3591285098749113
3.39499999999995,3.5,2.348067897572886
3.3999999999999497,3.5,2.3384018617062945
3.4049999999999496,2.15,2.33141524495597
3.4099999999999495,2.15,2.32866583073212
3.4149999999999494,2.3,2.3298343577554785
3.4199999999999493,2.3,2.329147900116543
3.424999999999949,1.98,2.323517683060067
3.429999999999949,1.98,2.3187688043489914
3.434999999999949,2.63,2.3201442318582255
3.439999999999949,2.63,2.3253911670009586
3.4449999999999488,2.34,2.330047436517512
3.4499999999999487,2.34,2.3324987789881844
3.4549999999999486,2.14,2.3345394864417686
3.4599999999999485,2.14,2.3375972902498736
3.4649999999999483,3.38,2.33935802377351
3.4699999999999482,3.38,2.3380000776370644
3.474999999999948,1.83,2.3365802564769362
3.479999999999948,1.83,2.3393859377401083
3.484999999999948,2.33,2.346599051993695
3.489999999999948,2.33,2.354265550803712
3.4949999999999477,2.51,2.3599994732045873
3.4999999999999476,2.51,2.3655360561882137
3.5049999999999475,2.1,2.3753745144716065
3.5099999999999474,2.1,2.3927093293724235
3.5149999999999473,3.02,2.4132943130599274
3.519999999999947,3.02,2.4290772740215614
3.524999999999947,2.08,2.4370001291903804
3.529999999999947,2.08,2.4396131203962237
3.534999999999947,2.51,2.4379829328569045
3.5399999999999467,2.51,2.431620995936867
3.5449999999999466,2.74,2.422052210794826
3.5499999999999465,2.74,2.4114119611963916
3.5549999999999464,1.96,2.403342567737712
3.5599999999999463,1.96,2.402094902622198
3.564999999999946,2.7,2.4072028091929307
3.569999999999946,2.7,2.4129174401971696
3.574999999999946,2.02,2.4158266665119337
3.579999999999946,2.02,2.4188174288215483
3.584999999999946,2.49,2.426674447322742
3.5899999999999457,2.49,2.441284223061055
3.5949999999999456,2.73,2.460805023792998
3.5999999999999455,2.73,2.4798226586919823
3.6049999999999454,2.26,2.4915954044431685
3.6099999999999453,2.26,2.4950165796290813
3.614999999999945,2.68,2.4935840117695407
3.619999999999945,2.68,2.4874387563908513
3.624999999999945,2.59,2.4730668529145254
3.629999999999945,2.59,2.4509521423601432
3.6349999999999447,2.48,2.4259572773745686
3.6399999999999446,2.48,2.4016219099956735
3.6449999999999445,2.05,2.3785686362332155
3.6499999999999444,2.05,2.355170618556225
3.6549999999999443,2.61,2.331821840471614
3.659999999999944,2.61,2.313373920078971
3.664999999999944,1.9,2.306149790907577
3.669999999999944,1.9,2.311954144047166
3.674999999999944,2.4,2.327690171215224
3.6799999999999438,2.4,2.3490667360492568
3.6849999999999437,2.25,2.372438633456028
3.6899999999999435,2.25,2.394450742827752
3.6949999999999434,2.43,2.4111718407161518
3.6999999999999433,2.43,2.4225159205984683
3.7049999999999432,2.9,2.431448137608953
3.709999999999943,2.9,2.4383067690713993
3.714999999999943,2.34,2.4416657075263175
3.719999999999943,2.34,2.4416594215406864
3.724999999999943,2.55,2.4372146763873035
3.7299999999999427,2.55,2.426495084737132
3.7349999999999426,2.0,2.412310458582227
3.7399999999999425,2.0,2.3996934638612495
3.7449999999999424,2.54,2.3905156911959047
3.7499999999999423,2.54,2.3845226653809486
3.754999999999942,2.41,2.3814999950397535
3.759999999999942,2.41,2.3802082048310313
3.764999999999942,2.14,2.38060046523454
3.769999999999942,2.14,2.3837075283300386
3.7749999999999417,3.04,2.3878914671439126
3.7799999999999416,3.04,2.390784784934107
3.7849999999999415,2.0,2.3939543302380666
3.7899999999999414,2.0,2.4007008927861646
3.7949999999999413,2.38,2.4089309282068876
3.799999999999941,2.38,2.412810913404635
3.804999999999941,2.54,2.4104054781659197
3.809999999999941,2.54,2.4046796538649873
3.814999999999941,2.18,2.4009438929125877
3.8199999999999408,2.18,2.4035626563214434
3.8249999999999407,3.19,2.4115272805907626
3.8299999999999406,3.19,2.419874932820837
3.8349999999999405,1.78,2.4266635904822804
3.8399999999999403,1.78,2.432956404982589
3.8449999999999402,2.52,2.4367025956390536
3.84999999999994,2.52,2.4349872319743273
3.85499999999994,2.59,2.42810750944001
3.85999999999994,2.59,2.417791271555452
3.86499999999994,2.16,2.4067788925389
3.8699999999999397,2.16,2.39910263511206
3.8749999999999396,3.12,2.3962080941843404
3.8799999999999395,3.12,2.394676790047046
3.8849999999999394,1.83,2.3926400727797237
3.8899999999999393,1.83,2.392379883497292
3.894999999999939,2.43,2.393519211603548
3.899999999999939,2.43,2.3928508492288154
3.904999999999939,2.36,2.3890587799588054
3.909999999999939,2.36,2.3828228219405108
3.9149999999999388,2.3,2.3774813814805626
3.9199999999999386,2.3,2.378017887499085
3.9249999999999385,3.08,2.3848343855368523
3.9299999999999384,3.08,2.392271999680053
3.9349999999999383,1.9,2.3949355728433424
3.939999999999938,1.9,2.392279950223823
3.944999999999938,2.41,2.3842760461083667
3.949999999999938,2.41,2.3702397257485393
3.954999999999938,2.5,2.3526754513308012
3.959999999999938,2.5,2.335841760763678
3.9649999999999377,2.22,2.3218959444954677
3.9699999999999376,2.22,2.311854718850252
3.9749999999999375,2.44,2.3068742442804946
3.9799999999999374,2.44,2.30523031305225
3.9849999999999373,2.0,2.3060964330077116
3.989999999999937,2.0,2.3118388801147547
3.994999999999937,2.54,2.3215918342505057
3.999999999999937,2.54,2.3322771664089843
4.004999999999937,1.98,2.3431742410493577
4.009999999999937,1.98,2.3533188586658023
4.014999999999937,2.53,2.3597092900219003
4.0199999999999365,2.53,2.361638625495884
4.024999999999936,2.81,2.360873270989411
4.029999999999936,2.81,2.3592075258296674
4.034999999999936,2.04,2.360045823910193
4.039999999999936,2.04,2.3665420818339147
4.044999999999936,2.56,2.3766180683264193
4.049999999999936,2.56,2.384157278948821
4.054999999999936,1.92,2.3858655916095106
4.059999999999936,1.92,2.383565154608288
4.0649999999999356,2.36,2.3793871130158672
4.0699999999999354,2.36,2.3747131300091886
4.074999999999935,3.01,2.372786159016406
4.079999999999935,3.01,2.374880734747613
4.084999999999935,2.22,2.3792995681941185
4.089999999999935,2.22,2.385068785113691
4.094999999999935,2.51,2.3891792438173503
4.099999999999935,2.51,2.3865449290739282
4.104999999999935,1.93,2.377402317513102
4.109999999999935,1.93,2.3677152864687327
4.1149999999999345,2.55,2.3612721069878297
4.119999999999934,2.55,2.3585192119175984
4.124999999999934,2.4,2.359507526117639
4.129999999999934,2.4,2.363065548229611
4.134999999999934,2.13,2.369559457265137
4.139999999999934,2.13,2.3804818791256226
4.144999999999934,3.05,2.3938740550849213
4.149999999999934,3.05,2.4060596447033578
4.154999999999934,1.87,2.4162474557503097
4.1599999999999335,1.87,2.4271316086208214
4.164999999999933,2.46,2.44159651251145
4.169999999999933,2.46,2.4587603202714097
4.174999999999933,2.68,2.4754243241211356
4.179999999999933,2.68,2.4906728610034925
4.184999999999933,2.27,2.508619754411496
4.189999999999933,2.27,2.534041833628059
4.194999999999933,2.78,2.5623810318340148
4.199999999999933,2.78,2.5816880238615583
4.204999999999933,2.63,2.585641582275678
4.2099999999999325,2.63,2.5771166298302357
4.214999999999932,2.43,2.5590240902038834
4.219999999999932,2.43,2.532828696649038
4.224999999999932,3.38,2.5023308288151433
4.229999999999932,3.38,2.470764545433302
4.234999999999932,2.07,2.439933285448976
4.239999999999932,2.07,2.411646321949756
4.244999999999932,2.43,2.386733934793181
4.249999999999932,2.43,2.3643278210335934
4.2549999999999315,1.93,2.346381498490645
4.259999999999931,1.93,2.337327705773613
4.264999999999931,2.38,2.3380637935058877
4.269999999999931,2.38,2.3452459354815502
4.274999999999931,2.48,2.3539571100371885
4.279999999999931,2.48,2.36081056659426
4.284999999999931,2.27,2.365921505219753
4.289999999999931,2.27,2.371876683047071
4.294999999999931,3.25,2.379323762929342
4.2999999999999305,3.25,2.386658799649035
4.30499999999993,1.77,2.3939922600233894
4.30999999999993,1.77,2.4022763857831904
4.31499999999993,2.4,2.4095362590437066
4.31999999999993,2.4,2.4133195469513127
4.32499999999993,2.43,2.415532963873015
4.32999999999993,2.43,2.418877814877893
4.33499999999993,2.32,2.4224620482822665
4.33999999999993,2.32,2.4253388658415895
4.34499999999993,3.15,2.4293448305535854
4.3499999999999295,3.15,2.433748417371213
4.354999999999929,2.04,2.4340061427270285
4.359999999999929,2.04,2.4285393821714987
4.364999999999929,2.72,2.417791226011894
4.369999999999929,2.72,2.4025821948047033
4.374999999999929,1.9,2.386754344454292
4.379999999999929,1.9,2.375225147358653
4.384999999999929,2.63,2.3723062084109197
4.389999999999929,2.63,2.379721811621066
4.3949999999999285,2.24,2.393814596377819
4.399999999999928,2.24,2.406812183104111
4.404999999999928,2.17,2.412480628927088
4.409999999999928,2.17,2.412989321983609
4.414999999999928,3.35,2.4165607047691573
4.419999999999928,3.35,2.4254731526806723
4.424999999999928,2.34,2.4338437400251145
4.429999999999928,2.34,2.4382746864018747
4.434999999999928,2.41,2.439623266206232
4.439999999999928,2.41,2.435973934293022
4.4449999999999275,2.11,2.4236069680474897
4.449999999999927,2.11,2.4031443734140843
4.454999999999927,3.08,2.3808642145164556
4.459999999999927,3.08,2.3658538751794636
4.464999999999927,1.94,2.3651845041248585
4.469999999999927,1.94,2.37655287394753
4.474999999999927,2.47,2.39052045883743
4.479999999999927,2.47,2.400477445276637
4.484999999999927,2.23,2.405835793193699
4.4899999999999265,2.23,2.40789730078038
4.494999999999926,2.41,2.406059737943464
4.499999999999926,2.41,2.401686857975136
4.504999999999926,3.34,2.3975042490417624
4.509999999999926,3.34,2.3931523281009346
4.514999999999926,1.96,2.3881062281038674
4.519999999999926,1.96,2.3832537585862776
4.524999999999926,2.67,2.376309231782514
4.529999999999926,2.67,2.363505967016909
4.5349999999999255,1.98,2.3456910642004467
4.539999999999925,1.98,2.32824066587816
4.544999999999925,2.24,2.31634359809106
4.549999999999925,2.24,2.3119611908458726
4.554999999999925,2.66,2.314469138547819
4.559999999999925,2.66,2.321057814715415
4.564999999999925,1.91,2.330676182994321
4.569999999999925,1.91,2.3450473333789774
4.574999999999925,2.71,2.361631842843369
4.579999999999925,2.71,2.3740970374298738
4.5849999999999245,2.17,2.3806681069732285
4.589999999999924,2.17,2.3847631065853405
4.594999999999924,2.42,2.38827474539427
4.599999999999924,2.42,2.3911578443602743
4.604999999999924,2.73,2.393042868829111
4.609999999999924,2.73,2.3924107350028923
4.614999999999924,1.92,2.390041673839226
4.619999999999924,1.92,2.389280273207354
4.624999999999924,2.76,2.3896755041860436
4.6299999999999235,2.76,2.3868173450540096
4.634999999999923,2.14,2.3788598612741647
4.639999999999923,2.14,2.3681381234231655
4.644999999999923,2.33,2.3568899156540564
4.649999999999923,2.33,2.3460600107515233
4.654999999999923,2.7,2.336181421388459
4.659999999999923,2.7,2.3265683545035265
4.664999999999923,1.98,2.318906918202284
4.669999999999923,1.98,2.317886686489091
4.6749999999999226,2.46,2.3219918379949274
4.6799999999999224,2.46,2.323004709928295
4.684999999999922,2.08,2.317365034502749
4.689999999999922,2.08,2.3080937809410464
4.694999999999922,2.3,2.2987313884434273
4.699999999999922,2.3,2.2918808378876814
4.704999999999922,3.35,2.2888731566370337
4.709999999999922,3.35,2.288629181524697
4.714999999999922,1.82,2.290436557360865
4.719999999999922,1.82,2.294669943974478
4.7249999999999215,2.42,2.298721023650952
4.729999999999921,2.42,2.298246291761907
4.734999999999921,2.17,2.2938804159786685
4.739999999999921,2.17,2.292698829751706
4.744999999999921,2.2,2.301613245120621
4.749999999999921,2.2,2.3209783214424475
4.754999999999921,2.69,2.3452468485343987
4.759999999999921,2.69,2.366920632086996
4.764999999999921,1.92,2.3822781144259646
4.7699999999999205,1.92,2.392701911529473
4.77499999999992,2.84,2.396341540938996
4.77999999999992,2.84,2.3916314303309227
4.78499999999992,2.45,2.382876373550666
4.78999999999992,2.45,2.3754775303409836
4.79499999999992,0.96,2.3738289406572544
4.79999999999992,0.96,2.378622957774576
4.80499999999992,2.61,2.384687486212237
4.80999999999992,2.61,2.384864223904245
4.81499999999992,1.87,2.3777767748453167
4.8199999999999195,1.87,2.3704067501264388
4.824999999999919,2.52,2.3693604898770655
4.829999999999919,2.52,2.3720900756163084
4.834999999999919,2.82,2.372791124954755
4.839999999999919,2.82,2.370362582031174
4.844999999999919,1.98,2.3675985210674955
4.849999999999919,1.98,2.366484331442001
4.854999999999919,2.75,2.363985397958446
4.859999999999919,2.75,2.3552110803530018
4.8649999999999185,1.91,2.3407673679967447
4.869999999999918,1.91,2.3265973746487947
4.874999999999918,2.36,2.316216546357955
4.879999999999918,2.36,2.309273877777664
4.884999999999918,2.49,2.305660078386584
4.889999999999918,2.49,2.304893626278531
4.894999999999918,1.97,2.3085220259400434
4.899999999999918,1.97,2.3198967743790373
4.904999999999918,2.79,2.336545479513118
4.9099999999999175,2.79,2.351075352173938
4.914999999999917,1.9,2.3595053728912254
4.919999999999917,1.9,2.3638042751295627
4.924999999999917,2.45,2.3669882532526594
4.929999999999917,2.45,2.370188468754895
4.934999999999917,2.8,2.373083379875832
4.939999999999917,2.8,2.374304693529034
4.944999999999917,2.02,2.3735758075366626
4.949999999999917,2.02,2.3728468391028543
4.954999999999917,2.54,2.371346907971346
4.9599999999999165,2.54,2.364020733167611
4.964999999999916,2.27,2.3492964908779745
4.969999999999916,2.27,2.3329384671670064
4.974999999999916,2.29,2.3223638874561
4.979999999999916,2.29,2.3207041718054704
4.984999999999916,2.45,2.3264548679925348
4.989999999999916,2.45,2.3349061056028524
4.994999999999916,2.01,2.342935706642664
4.999999999999916,2.01,2.3511568385800734
5.0049999999999155,2.47,2.3582690491301816
5.009999999999915,2.47,2.36149343571914
5.014999999999915,2.5,2.3622855310822604
5.019999999999915,2.5,2.3637312686195644
5.024999999999915,2.36,2.3642290607140546
5.029999999999915,2.36,2.3607941365290306
5.034999999999915,2.57,2.3537325704633636
5.039999999999915,2.57,2.3432167454047033
5.044999999999915,1.9,2.3267415498079975
5.049999999999915,1.9,2.3044512033382514
5.0549999999999145,2.67,2.2810690214941434
5.059999999999914,2.67,2.261493749165898
5.064999999999914,1.87,2.2503036615817567
5.069999999999914,1.87,2.2497563432152665
5.074999999999914,2.46,2.256962947931216
5.079999999999914,2.46,2.267780847230018
5.084999999999914,1.94,2.2825454691791904
5.089999999999914,1.94,2.3007463974140707
5.094999999999914,2.33,2.3161518941184243
5.0999999999999135,2.33,2.3261866297128875
5.104999999999913,3.43,2.3336988713840694
5.109999999999913,3.43,2.340354795223939
5.114999999999913,1.9,2.34665262836338
5.119999999999913,1.9,2.353952186718672
5.124999999999913,2.96,2.3617686299606038
5.129999999999913,2.96,2.366166280588611
5.134999999999913,1.85,2.365122213454989
5.139999999999913,1.85,2.3627711488229663
5.1449999999999125,2.34,2.3638753795357346
5.149999999999912,2.34,2.3681827641061286
5.154999999999912,2.5,2.374865373832674
5.159999999999912,2.5,2.3824523855309363
5.164999999999912,2.21,2.387765851621894
5.169999999999912,2.21,2.3912332670807723
5.174999999999912,3.14,2.394040899900092
5.179999999999912,3.14,2.3942445088547983
5.184999999999912,1.88,2.39185451004792
5.189999999999912,1.88,2.389395061572846
5.1949999999999115,2.71,2.38649620952531
5.199999999999911,2.71,2.381443536060047
5.204999999999911,2.11,2.3743742819882097
5.209999999999911,2.11,2.365469854252434
5.214999999999911,2.18,2.355869856159749
5.219999999999911,2.18,2.349323879513848
5.224999999999911,2.91,2.348747364957335
5.229999999999911,2.91,2.3525586482162018
5.234999999999911,2.03,2.359855281666722
5.2399999999999105,2.03,2.3729665445380355
5.24499999999991,2.47,2.3896446546352457
5.24999999999991,2.47,2.402510253627386
5.25499999999991,2.27,2.40808722109172
5.25999999999991,2.27,2.4086611267259355
5.26499999999991,2.43,2.4059289184143515
5.26999999999991,2.43,2.4014520560305743
5.27499999999991,2.87,2.3974890587498665
5.27999999999991,2.87,2.394388386336806
5.2849999999999095,2.0,2.394301025938996
5.289999999999909,2.0,2.400599265969449
5.294999999999909,2.65,2.4140010015648525
5.299999999999909,2.65,2.4350974609354528
5.304999999999909,1.92,2.4676017424967864
5.309999999999909,1.92,2.511737007517361
5.314999999999909,2.39,2.555502201177802
5.319999999999909,2.39,2.5856775934528753
5.324999999999909,2.97,2.5988441317173145
5.329999999999909,2.97,2.601457908482597
5.3349999999999085,4.09,2.603668904770909
5.339999999999908,4.09,2.6117141575852436
5.344999999999908,3.08,2.62233284394492
5.349999999999908,3.08,2.6268048392191115
5.354999999999908,1.8,2.6184641766822407
5.359999999999908,1.8,2.593445499181654
5.364999999999908,2.42,2.5514283843381196
5.369999999999908,2.42,2.5012861259612915
5.374999999999908,2.75,2.45590990866929
5.3799999999999075,2.75,2.4207282697887975
5.384999999999907,1.95,2.398869254906308
5.389999999999907,1.95,2.391615877145407
5.394999999999907,3.06,2.394002607991465
5.399999999999907,3.06,2.3977763297706254
5.404999999999907,1.91,2.399709310621259
5.409999999999907,1.91,2.4023758610053023
5.414999999999907,2.29,2.406355688601296
5.419999999999907,2.29,2.4103464574887723
5.424999999999907,2.79,2.41400215615353
5.4299999999999065,2.79,2.4170227496411254
5.434999999999906,2.08,2.4224240444238503
5.439999999999906,2.08,2.4354347827160594
5.444999999999906,3.03,2.453821055376404
5.449999999999906,3.03,2.4684157409777527
5.454999999999906,2.05,2.473629892121866
5.459999999999906,2.05,2.471160019482792
5.464999999999906,2.45,2.46452464743345
5.469999999999906,2.45,2.4565791012776166
5.4749999999999055,2.94,2.4487618918624747
5.479999999999905,2.94,2.440296759889035
5.484999999999905,2.0,2.433468453261284
5.489999999999905,2.0,2.43340986986452
5.494999999999905,2.62,2.4388002270965403
5.499999999999905,2.62,2.44089739488524
5.504999999999905,2.3,2.433529689854007
5.509999999999905,2.3,2.419051335172341
5.514999999999905,2.26,2.4037105760099964
5.5199999999999045,2.26,2.3922845099859726
5.524999999999904,3.09,2.387025853191741
5.529999999999904,3.09,2.385861065143668
5.534999999999904,2.03,2.3851389029875554
5.539999999999904,2.03,2.3840414684343374
5.544999999999904,2.31,2.3807073356257757
5.549999999999904,2.31,2.3716757634027803
5.554999999999904,2.37,2.3584848860268663
5.559999999999904,2.37,2.3469757300491065
5.564999999999904,2.42,2.340656005463784
5.5699999999999035,2.42,2.3398924406607433
5.574999999999903,2.46,2.342311504938088
5.579999999999903,2.46,2.3435316452413995
5.584999999999903,1.91,2.342972365642579
5.589999999999903,1.91,2.343868218330684
5.594999999999903,2.85,2.346510994879341
5.599999999999903,2.85,2.349192980888773
5.604999999999903,2.07,2.3530699085929903
5.609999999999903,2.07,2.359520508030064
5.6149999999999025,2.22,2.368136850940385
5.619999999999902,2.22,2.3779089944103475
5.624999999999902,3.53,2.387802313572662
5.629999999999902,3.53,2.3967592183112134
5.634999999999902,2.01,2.4049203666287577
5.639999999999902,2.01,2.4150074745383523
5.644999999999902,2.63,2.427251121723831
5.649999999999902,2.63,2.4357224612430683
5.654999999999902,2.39,2.4360312369451957
5.6599999999999016,2.39,2.431368420936294
5.6649999999999014,2.44,2.425956088535587
5.669999999999901,2.44,2.4206323128928995
5.674999999999901,2.61,2.4138924365250034
5.679999999999901,2.61,2.403001946734514
5.684999999999901,1.97,2.388279927937331
5.689999999999901,1.97,2.37326130049726
5.694999999999901,2.86,2.3584260293745225
5.699999999999901,2.86,2.3417813644338072
5.704999999999901,2.05,2.3235075880484706
5.7099999999999005,2.05,2.3064849725273686
5.7149999999999,2.21,2.2960097772718293
5.7199999999999,2.21,2.295573688085468
5.7249999999999,2.56,2.3034456525973854
5.7299999999999,2.56,2.3155620839755957
5.7349999999999,1.82,2.3314223884258336
5.7399999999999,1.82,2.3535125073714895
5.7449999999999,2.38,2.379291553001716
5.7499999999999,2.38,2.4014101709750224
5.7549999999998995,2.79,2.4161267601923266
5.759999999999899,2.79,2.427248411133743
5.764999999999899,2.31,2.4417090020241052
5.769999999999899,2.31,2.4619980958955026
5.774999999999899,2.9,2.482280560059186
5.779999999999899,2.9,2.493594804791391
5.784999999999899,1.99,2.492094180676994
5.789999999999899,1.99,2.480349510704888
5.794999999999899,2.48,2.46190528874932
5.799999999999899,2.48,2.440127097071417
5.8049999999998985,2.93,2.4193728566524495
5.809999999999898,2.93,2.40251609780811
5.814999999999898,2.01,2.393345998530899
5.819999999999898,2.01,2.395804662304049
5.824999999999898,2.52,2.4085705840921774
5.829999999999898,2.52,2.4247085149188057
5.834999999999898,2.07,2.4399560390589796
5.839999999999898,2.07,2.456051429645731
5.844999999999898,2.38,2.4729195537452817
5.8499999999998975,2.38,2.4870297712150524
5.854999999999897,3.06,2.4933062298922724
5.859999999999897,3.06,2.487756848175262
5.864999999999897,2.47,2.4739071536545816
5.869999999999897,2.47,2.458558609545029
5.874999999999897,2.94,2.4412334958669586
5.879999999999897,2.94,2.417586284542165
5.884999999999897,2.0,2.3882278850549716
5.889999999999897,2.0,2.3552839198005717
5.8949999999998965,1.61,2.317817875028149
5.899999999999896,1.61,2.277047896796238
5.904999999999896,3.08,2.2391895591724245
5.909999999999896,3.08,2.2096255921136856
5.914999999999896,1.83,2.1936148386229832
5.919999999999896,1.83,2.196382050684046
5.924999999999896,2.55,2.2149917435684277
5.929999999999896,2.55,2.237533221135337
5.934999999999896,1.87,2.254923803989529
5.939999999999896,1.87,2.266097241337315
5.9449999999998955,2.25,2.2708826958737687
5.949999999999895,2.25,2.2725476098766437
5.954999999999895,3.48,2.277205030369171
5.959999999999895,3.48,2.2863207554178118
5.964999999999895,1.99,2.300677335974311
5.969999999999895,1.99,2.3227675607193117
5.974999999999895,2.6,2.349383093776316
5.979999999999895,2.6,2.3709836167858835
5.984999999999895,1.98,2.381503357709777
5.9899999999998945,1.98,2.3845508887518423
5.994999999999894,2.42,2.388854613675057
5.999999999999894,2.42,2.399827940037169
6.004999999999894,3.3,2.415916957326197
6.009999999999894,3.3,2.433051496231265
6.014999999999894,1.91,2.450831190650325
6.019999999999894,1.91,2.4707031708151215
6.024999999999894,2.55,2.48923821527173
6.029999999999894,2.55,2.49850885190933
6.034999999999894,2.67,2.4939163900555537
6.0399999999998935,2.67,2.479195895137305
6.044999999999893,2.22,2.4606814462469755
6.049999999999893,2.22,2.44247062525849
6.054999999999893,3.19,2.4275682273276824
6.059999999999893,3.19,2.415125953226556
6.064999999999893,2.08,2.4034328656979485
6.069999999999893,2.08,2.3937357806086546
6.074999999999893,2.28,2.3851516704266427
6.079999999999893,2.28,2.3751269441327576
6.0849999999998925,2.18,2.3644651635849536
6.089999999999892,2.18,2.354477611462897
6.094999999999892,2.41,2.344444615552975
6.099999999999892,2.41,2.3355479981751572
6.104999999999892,2.81,2.329439660986863
6.109999999999892,2.81,2.325356894682707
6.114999999999892,1.95,2.324102625204219
6.119999999999892,1.95,2.327335797584443
6.124999999999892,2.61,2.3324279793080502
6.1299999999998915,2.61,2.3356907758626417
6.134999999999891,1.84,2.3374206310461645
6.139999999999891,1.84,2.3394484487542244
6.144999999999891,2.24,2.3412732495210338
6.149999999999891,2.24,2.3423273267563736
6.154999999999891,3.0,2.3440238758347642
6.159999999999891,3.0,2.347379521232309
6.164999999999891,2.13,2.3544697196020454
6.169999999999891,2.13,2.367920718801669
6.174999999999891,2.7,2.383835686168728
6.1799999999998905,2.7,2.3931474718030383
6.18499999999989,1.87,2.3908939035753907
6.18999999999989,1.87,2.3794619616436776
6.19499999999989,2.38,2.3636148948876574
6.19999999999989,2.38,2.3479389493751635
6.20499999999989,2.86,2.335449361348387
6.20999999999989,2.86,2.3258276577683823
6.21499999999989,1.97,2.320421467683792
6.21999999999989,1.97,2.3222877529780757
6.2249999999998895,2.49,2.3286268439997135
6.229999999999889,2.49,2.3312881460547126
6.234999999999889,2.11,2.3254844101596164
6.239999999999889,2.11,2.314643297609489
6.244999999999889,2.14,2.306511326712013
6.249999999999889,2.14,2.306066295831771
6.254999999999889,2.99,2.313099822266592
6.259999999999889,2.99,2.32420883223924
6.264999999999889,1.98,2.338348441538171
6.2699999999998886,1.98,2.356678585929276
6.2749999999998884,2.32,2.3750286111240824
6.279999999999888,2.32,2.3853688246282476
6.284999999999888,2.54,2.3841191555080115
6.289999999999888,2.54,2.374877892345085
6.294999999999888,2.23,2.3641885910158993
6.299999999999888,2.23,2.3573547171588145
6.304999999999888,3.03,2.35547433995428
6.309999999999888,3.03,2.35458591933048
6.314999999999888,1.78,2.3508763248999966
6.3199999999998875,1.78,2.3437693624991565
6.324999999999887,2.36,2.332421039701261
6.329999999999887,2.36,2.3172251357584916
6.334999999999887,2.37,2.302949189956991
6.339999999999887,2.37,2.2932761677638602
6.344999999999887,2.17,2.2866524946689135
6.349999999999887,2.17,2.2792864317959496
6.354999999999887,2.56,2.2656419752157433
6.359999999999887,2.56,2.241145027058683
6.3649999999998865,1.92,2.2092376345574203
6.369999999999886,1.92,2.1781468896626235
6.374999999999886,2.81,2.1518104682596966
6.379999999999886,2.81,2.130763219139233
6.384999999999886,1.68,2.1170706985919088
6.389999999999886,1.68,2.111323839792123
6.394999999999886,1.67,2.1107272885695556
6.399999999999886,1.67,2.1133686487222567
6.404999999999886,2.4,2.1199171366790215
6.409999999999886,2.4,2.1304467957753714
6.4149999999998855,1.91,2.1445540750336822
6.419999999999885,1.91,2.164213288815769
6.424999999999885,2.98,2.189648272416723
6.429999999999885,2.98,2.2161271545168932
6.434999999999885,2.0,2.2394770032882296
6.439999999999885,2.0,2.258890611023903
6.444999999999885,2.33,2.2726033438826785
6.449999999999885,2.33,2.280599684238956
6.454999999999885,2.19,2.285860653477952
6.4599999999998845,2.19,2.288785950179021
6.464999999999884,2.13,2.2891138658705454
6.469999999999884,2.13,2.2898000022096054
6.474999999999884,2.82,2.2935774682698877
6.479999999999884,2.82,2.299654975500059
6.484999999999884,1.99,2.308473516953869
6.489999999999884,1.99,2.3218854715305697
6.494999999999884,2.51,2.3373012369448523
6.499999999999884,2.51,2.3494023355048985
6.5049999999998835,2.16,2.3553349499473493
6.509999999999883,2.16,2.3554026694610988
6.514999999999883,2.25,2.351530507463524
6.519999999999883,2.25,2.3472687732001445
6.524999999999883,3.0,2.3459271933663217
6.529999999999883,3.0,2.34752226467825
6.534999999999883,2.05,2.35278974700424
6.539999999999883,2.05,2.3637620642338804
6.544999999999883,2.41,2.3767769328641206
6.549999999999883,2.41,2.3846415617315433
6.5549999999998825,2.2,2.3866071355969303
6.559999999999882,2.2,2.3869236803920444
6.564999999999882,2.33,2.386596591347737
6.569999999999882,2.33,2.385320421449338
6.574999999999882,3.22,2.383922300965606
6.579999999999882,3.22,2.3826447063976026
6.584999999999882,1.88,2.3830682937960628
6.589999999999882,1.88,2.387009551455482
6.594999999999882,2.81,2.3923503115812617
6.5999999999998815,2.81,2.3945073133004344
6.604999999999881,1.97,2.390931105229792
6.609999999999881,1.97,2.381913879018362
6.614999999999881,2.23,2.368689850386408
6.619999999999881,2.23,2.3545039285718072
6.624999999999881,3.35,2.344813177420605
6.629999999999881,3.35,2.340119341742431
6.634999999999881,2.13,2.3364136656485157
6.639999999999881,2.13,2.3334872806647335
6.644999999999881,2.44,2.3308480217773875
6.6499999999998805,2.44,2.3228229032048002
6.65499999999988,1.97,2.30735514679055
6.65999999999988,1.97,2.2912044597331533
6.66499999999988,2.56,2.281684551376921
6.66999999999988,2.56,2.2807266430863344
6.67499999999988,2.16,2.2856320512223878
6.67999999999988,2.16,2.292512556030721
6.68499999999988,1.97,2.3028927118639535
6.68999999999988,1.97,2.320360087053448
6.6949999999998795,3.07,2.3430079194607836
6.699999999999879,3.07,2.3660196453843225
6.704999999999879,2.03,2.387058910925779
6.709999999999879,2.03,2.4070662775685827
6.714999999999879,2.32,2.4263509068890237
6.719999999999879,2.32,2.4419019422743156
6.724999999999879,3.08,2.451117736448585
6.729999999999879,3.08,2.455845760220181
6.734999999999879,2.19,2.4615786653308396
6.7399999999998785,2.19,2.473104001606295
6.744999999999878,2.6,2.4873558274120557
6.749999999999878,2.6,2.494004582412362
6.754999999999878,2.3,2.486660586253945
6.759999999999878,2.3,2.4691629882811745
6.764999999999878,2.51,2.4506695640675216
6.769999999999878,2.51,2.4383171659988903
6.774999999999878,2.9,2.432601760552822
6.779999999999878,2.9,2.428936286365559
6.784999999999878,1.86,2.425054424991156
6.7899999999998775,1.86,2.4217756436063134
6.794999999999877,2.42,2.4159994492892127
6.799999999999877,2.42,2.4020844156488548
6.804999999999877,2.57,2.3797253043987774
6.809999999999877,2.57,2.3552817036329707
6.814999999999877,2.14,2.3372135776455236
6.819999999999877,2.14,2.3292025086095998
6.824999999999877,3.48,2.328029624417035
6.829999999999877,3.48,2.3274286213730706
6.8349999999998765,1.78,2.3239301171779005
6.839999999999876,1.78,2.3189383851361267
6.844999999999876,2.27,2.314934166901782
6.849999999999876,2.27,2.312835488579966
6.854999999999876,2.52,2.3117235887578635
6.859999999999876,2.52,2.3098078716368944
6.864999999999876,2.09,2.3093347898967043
6.869999999999876,2.09,2.3154719148437115
6.874999999999876,2.72,2.3254984946638113
6.8799999999998755,2.72,2.33109182473172
6.884999999999875,2.28,2.329469076096826
6.889999999999875,2.28,2.323805400737864
6.894999999999875,1.88,2.315443005249589
6.899999999999875,1.88,2.3042102810105427
6.904999999999875,3.01,2.29254621285137
6.909999999999875,3.01,2.2835531086771708
6.914999999999875,1.82,2.2814056479265674
6.919999999999875,1.82,2.2902679282724847
6.924999999999875,2.5,2.3094401791520216
6.9299999999998745,2.5,2.3334296796746967
6.934999999999874,2.05,2.358811792103215
6.939999999999874,2.05,2.3846196738315037
6.944999999999874,2.4,2.407768872026142
6.949999999999874,2.4,2.4274364558430346
6.954999999999874,2.96,2.4461711144999967
6.959999999999874,2.96,2.4631482156155586
6.964999999999874,2.21,2.4736559114056433
6.969999999999874,2.21,2.4764287438491497
6.9749999999998735,3.04,2.472572993793685
6.979999999999873,3.04,2.460847292771882
6.984999999999873,1.91,2.4390987793743033
6.989999999999873,1.91,2.409082078963615
6.994999999999873,2.68,2.377669763477588
6.999999999999873,2.68,2.3524263366942515
7.004999999999873,2.13,2.338437154746817
7.009999999999873,2.13,2.3341066436920097
7.014999999999873,2.23,2.33475969343116
7.019999999999873,2.23,2.3402531405576994
7.0249999999998725,2.19,2.3533343056346734
7.029999999999872,2.19,2.3717148353925728
7.034999999999872,2.5,2.3884379265389004
7.039999999999872,2.5,2.400926553322951
7.044999999999872,2.73,2.4094519730992223
7.049999999999872,2.73,2.4124660798331234
7.054999999999872,2.16,2.407853138869813
7.059999999999872,2.16,2.3959342766749705
7.064999999999872,3.01,2.37938394752993
7.0699999999998715,3.01,2.3614368978483307
7.074999999999871,1.91,2.346156949901389
7.079999999999871,1.91,2.336715483289417
7.084999999999871,2.25,2.3321984241472613
7.089999999999871,2.25,2.3298171308692797
7.094999999999871,2.13,2.330904078160653
7.099999999999871,2.13,2.3365327183893307
7.104999999999871,2.37,2.3435599155107134
7.109999999999871,2.37,2.3508424722507133
7.1149999999998705,3.24,2.3590789427059087
7.11999999999987,3.24,2.3677684250026383
7.12499999999987,1.89,2.3780748784892407
7.12999999999987,1.89,2.391262846241848
7.13499999999987,2.83,2.403976278822207
7.13999999999987,2.83,2.411537134266698
7.14499999999987,1.93,2.4129128860059432
7.14999999999987,1.93,2.410128197209214
7.15499999999987,2.27,2.405613324292287
7.15999999999987,2.27,2.40188176214456
7.1649999999998695,3.2,2.4024792168641436
7.169999999999869,3.2,2.4077943064276175
7.174999999999869,2.15,2.416639545130266
7.179999999999869,2.15,2.4306934478677955
7.184999999999869,2.61,2.4486475825738774
7.189999999999869,2.61,2.4625390914672494
7.194999999999869,2.09,2.465596301294975
7.199999999999869,2.09,2.459110365373429
7.204999999999869,2.62,2.447892738889758
7.2099999999998685,2.62,2.437678191222761
7.214999999999868,2.68,2.4356472929647754
7.219999999999868,2.68,2.4424880559091937
7.224999999999868,2.29,2.451323290049366
7.229999999999868,2.29,2.457102289293808
7.234999999999868,2.47,2.4592038137109875
7.239999999999868,2.47,2.4576368802972066
7.244999999999868,2.12,2.45308124628866
7.249999999999868,2.12,2.4480143242109826
7.2549999999998676,3.22,2.4437568494733477
7.2599999999998674,3.22,2.4414082137468665
7.264999999999867,2.06,2.4445443613781603
7.269999999999867,2.06,2.452819500267501
7.274999999999867,2.6,2.4596290917675345
7.279999999999867,2.6,2.4598296056883053
7.284999999999867,2.54,2.4519654174938794
7.289999999999867,2.54,2.4373418038417354
7.294999999999867,2.07,2.4212415298382943
7.299999999999867,2.07,2.4101105518205523
7.3049999999998665,3.28,2.405878262582229
7.309999999999866,3.28,2.404754907603374
7.314999999999866,1.94,2.403674876963885
7.319999999999866,1.94,2.4034013810326433
7.324999999999866,2.34,2.4034427231748348
7.329999999999866,2.34,2.4018767732491813
7.334999999999866,2.59,2.400394585647165
7.339999999999866,2.59,2.402514763505214
7.344999999999866,2.27,2.41061558266353
7.3499999999998655,2.27,2.4244857792638395
7.354999999999865,2.73,2.436275801885187
7.359999999999865,2.73,2.435606192427024
7.364999999999865,1.93,2.4197318269895596
7.369999999999865,1.93,2.393744668754851
7.374999999999865,3.1,2.36271015945324
7.379999999999865,3.1,2.3313319799960275
7.384999999999865,2.42,2.3059160498092584
7.389999999999865,2.42,2.2878078384572125
7.394999999999865,1.6,2.27245661919648
7.3999999999998645,1.6,2.2567144682261127
7.404999999999864,2.34,2.2407738192496707
7.409999999999864,2.34,2.2246967287369697
7.414999999999864,1.89,2.212487025943895
7.419999999999864,1.89,2.214156105938303
7.424999999999864,2.72,2.2319169442597677
7.429999999999864,2.72,2.256495036674165
7.434999999999864,2.0,2.282149387887968
7.439999999999864,2.0,2.3067600182509658
7.4449999999998635,2.33,2.3244830756881334
7.449999999999863,2.33,2.3333617052024134
7.454999999999863,3.58,2.3367835212847563
7.459999999999863,3.58,2.3367909138423824
7.464999999999863,1.88,2.3343970238552743
7.469999999999863,1.88,2.3327707298370717
7.474999999999863,2.84,2.3351138335742934
7.479999999999863,2.84,2.3384554229863546
7.484999999999863,1.95,2.338678272350315
7.4899999999998625,1.95,2.3395275260200794
7.494999999999862,2.34,2.3452332279139996
7.499999999999862,2.34,2.3513712786734553
7.504999999999862,2.38,2.3526212993224727
7.509999999999862,2.38,2.348682307261298
7.514999999999862,2.34,2.342470516832003
7.519999999999862,2.34,2.3388120761856253
7.524999999999862,3.51,2.3398059473830775
7.529999999999862,3.51,2.342171612941248
7.534999999999862,1.85,2.3424773631734217
7.5399999999998615,1.85,2.340003571478439
7.544999999999861,2.39,2.3335626868534027
7.549999999999861,2.39,2.3227768238281867
7.554999999999861,2.34,2.3116639707647657
7.559999999999861,2.34,2.3057295876395174
7.564999999999861,2.17,2.306749518479814
7.569999999999861,2.17,2.312312080983454
7.574999999999861,2.61,2.320420609235566
7.579999999999861,2.61,2.329248137330835
7.5849999999998605,1.98,2.3368717320962737
7.58999999999986,1.98,2.34368826107822
7.59499999999986,2.73,2.3489408009241197
7.59999999999986,2.73,2.351155271190602
7.60499999999986,2.02,2.351802034924342
7.60999999999986,2.02,2.352172154928844
7.61499999999986,2.54,2.3510770549641897
7.61999999999986,2.54,2.3487208609235037
7.62499999999986,2.48,2.346902249228849
7.62999999999986,2.48,2.345082685936719
7.6349999999998595,1.99,2.3425631369797006
7.639999999999859,1.99,2.3413581730501796
7.644999999999859,2.68,2.342285533968732
7.649999999999859,2.68,2.3428252050263656
7.654999999999859,2.03,2.3425494605340385
7.659999999999859,2.03,2.34440005546597
7.664999999999859,2.46,2.348429568070565
7.669999999999859,2.46,2.3516966243806827
7.674999999999859,2.43,2.353357582194504
7.6799999999998585,2.43,2.353728469126718
7.684999999999858,2.23,2.3527323542404375
7.689999999999858,2.23,2.351926156728342
7.694999999999858,2.68,2.351784534682194
7.699999999999858,2.68,2.3500787924878646
7.704999999999858,1.91,2.3472821304353895
7.709999999999858,1.91,2.3472181860516144
7.714999999999858,2.56,2.350895274511845
7.719999999999858,2.56,2.3549105724229413
7.7249999999998575,2.28,2.3553856538413536
7.729999999999857,2.28,2.350230563221112
7.734999999999857,2.19,2.3386841421245483
7.739999999999857,2.19,2.3235429701870935
7.744999999999857,3.4,2.3110770267596683
7.749999999999857,3.4,2.303079970610819
7.754999999999857,2.11,2.296049536596957
7.759999999999857,2.11,2.288584449934942
7.764999999999857,2.22,2.2805099467623173
7.769999999999857,2.22,2.269624452764893
7.7749999999998565,1.95,2.2565165505453577
7.779999999999856,1.95,2.2457535915645566
7.784999999999856,2.59,2.2406114221515026
7.789999999999856,2.59,2.2417088358399027
7.794999999999856,2.15,2.2484302992975738
7.799999999999856,2.15,2.2573791285464684
7.804999999999856,2.07,2.262674492277369
7.809999999999856,2.07,2.2615966715726414
7.814999999999856,2.82,2.255886935332416
7.8199999999998555,2.82,2.249745931033004
7.824999999999855,1.87,2.250124493720054
7.829999999999855,1.87,2.2632635769073226
7.834999999999855,2.45,2.290532482635793
7.839999999999855,2.45,2.327380600745942
7.844999999999855,1.89,2.3694971259556707
7.849999999999855,1.89,2.415343860317699
7.854999999999855,2.34,2.463656227827792
7.859999999999855,2.34,2.513112428221941
7.8649999999998546,3.09,2.5572141048145687
7.8699999999998544,3.09,2.5868788483484217
7.874999999999854,2.68,2.5989433490662663
7.879999999999854,2.68,2.598695667319026
7.884999999999854,3.11,2.5922160862083943
7.889999999999854,3.11,2.580410290236614
7.894999999999854,1.28,2.562694493754273
7.899999999999854,1.28,2.5386734799866844
7.904999999999854,2.47,2.5073860679833375
7.909999999999854,2.47,2.470900465372874
7.9149999999998535,2.19,2.4356784065747465
7.919999999999853,2.19,2.405104439111559
7.924999999999853,2.32,2.380525956881723
7.929999999999853,2.32,2.363615655653834
7.934999999999853,3.01,2.352531405947653
7.939999999999853,3.01,2.343488680079423
7.944999999999853,2.01,2.337304817508433
7.949999999999853,2.01,2.3372437241818975
7.954999999999853,2.51,2.3423336424104004
7.9599999999998525,2.51,2.3484790079383995
7.964999999999852,1.92,2.35296811866221
7.969999999999852,1.92,2.3559868691692554
7.974999999999852,2.25,2.357872265290862
7.979999999999852,2.25,2.3602684999418533
7.984999999999852,2.85,2.367946918670067
7.989999999999852,2.85,2.3814995770021685
7.994999999999852,2.35,2.3945184870759513
7.999999999999852,2.35,2.402195501803251
8.004999999999852,2.58,2.402150711538497
8.009999999999852,2.58,2.392694528171849
8.014999999999853,1.97,2.3769897098067907
8.019999999999854,1.97,2.360990150100902
8.024999999999855,2.84,2.3482303846109205
8.029999999999855,2.84,2.341573173196066
8.034999999999856,1.86,2.3455607498453066
8.039999999999857,1.86,2.359434736306827
8.044999999999858,2.19,2.375739666186612
8.049999999999859,2.19,2.3885836296023126
8.05499999999986,2.81,2.3963981973789426
8.05999999999986,2.81,2.4004968898365533
8.064999999999861,2.21,2.40507246415527
8.069999999999862,2.21,2.4148086018142814
8.074999999999863,3.25,2.4285340705086718
8.079999999999863,3.25,2.438928121339308
8.084999999999864,1.86,2.4393468059413785
8.089999999999865,1.86,2.428578704296158
8.094999999999866,2.42,2.4079005062198617
8.099999999999866,2.42,2.381461302763406
8.104999999999867,2.65,2.3565047532584003
8.109999999999868,2.65,2.3370616498447387
8.114999999999869,2.11,2.326503601609488
8.11999999999987,2.11,2.3288787521846466
8.12499999999987,2.41,2.3421972754852542
8.129999999999871,2.41,2.3584777204554106
8.134999999999872,1.91,2.373674854460507
8.139999999999873,1.91,2.3902254345988045
8.144999999999873,2.56,2.4085005322238784
8.149999999999874,2.56,2.426565379175937
8.154999999999875,2.67,2.4444709813761394
8.159999999999876,2.67,2.461797800863993
8.164999999999877,2.4,2.4762480912415645
8.169999999999877,2.4,2.486553769670437
8.174999999999878,2.97,2.491078208440904
8.179999999999879,2.97,2.4882157174565718
8.18499999999988,1.89,2.4804441185286046
8.18999999999988,1.89,2.4724464233400947
8.194999999999881,2.65,2.46510743182114
8.199999999999882,2.65,2.456521535553723
8.204999999999883,2.35,2.4485573766122846
8.209999999999884,2.35,2.442941202033544
8.214999999999884,2.26,2.4366996539504906
8.219999999999885,2.26,2.428138136595088
8.224999999999886,3.34,2.419034454648963
8.229999999999887,3.34,2.4107513240268683
8.234999999999888,1.95,2.4058632937904325
8.239999999999888,1.95,2.4077914399767057
8.244999999999889,2.75,2.414134132526668
8.24999999999989,2.75,2.4188248614645254
8.25499999999989,1.84,2.4210866943295057
8.259999999999891,1.84,2.4234979370390604
8.264999999999892,2.42,2.4257957289078034
8.269999999999893,2.42,2.427540142539153
8.274999999999894,3.31,2.4291629601427487
8.279999999999895,3.31,2.4305310063077346
8.284999999999895,1.93,2.4339776080043096
8.289999999999896,1.93,2.443318218888175
8.294999999999897,3.0,2.45699231832416
8.299999999999898,3.0,2.4670606139594735
8.304999999999898,2.01,2.4673429381013237
8.3099999999999,2.01,2.4594081183686445
8.3149999999999,2.29,2.4476486422498143
8.3199999999999,2.29,2.435529046544211
8.324999999999902,3.05,2.4270735009955375
8.329999999999902,3.05,2.422866681947822
8.334999999999903,2.21,2.4216179529508914
8.339999999999904,2.21,2.4259441408096225
8.344999999999905,2.55,2.437732646702599
8.349999999999905,2.55,2.4518955139187
8.354999999999906,2.03,2.462831860329578
8.359999999999907,2.03,2.471148090084789
8.364999999999908,2.64,2.480148959249809
8.369999999999909,2.64,2.493339762270715
8.37499999999991,2.51,2.5111319726060906
8.37999999999991,2.51,2.5286188014871476
8.384999999999911,2.65,2.5405722975855274
8.389999999999912,2.65,2.5464464970889167
8.394999999999913,2.76,2.547392497130911
8.399999999999913,2.76,2.544112482283051
8.404999999999914,1.15,2.5395123811832825
8.409999999999915,1.15,2.536379616159577
8.414999999999916,2.68,2.532254817454022
8.419999999999916,2.68,2.5227776530542263
8.424999999999917,2.34,2.509232085486312
8.429999999999918,2.34,2.495373130498751
8.434999999999919,2.37,2.4818439531747756
8.43999999999992,2.37,2.4672645855023716
8.44499999999992,3.37,2.4507554685965074
8.449999999999921,3.37,2.433654799803546
8.454999999999922,1.9,2.420909945662445
8.459999999999923,1.9,2.416332020059394
8.464999999999923,2.74,2.4178741397893635
8.469999999999924,2.74,2.4205228427918084
8.474999999999925,1.93,2.42278071507107
8.479999999999926,1.93,2.4259711041505647
8.484999999999927,2.33,2.4287357170560058
8.489999999999927,2.33,2.429756736236038
8.494999999999928,3.42,2.430541980039563
8.499999999999929,3.42,2.4309045100374678
8.50499999999993,2.19,2.4278184932772073
8.50999999999993,2.19,2.422018416217747
8.514999999999931,2.88,2.4147005437172315
8.519999999999932,2.88,2.401664468965384
8.524999999999933,1.88,2.379650476519325
8.529999999999934,1.88,2.35300948105898
8.534999999999934,2.46,2.328692104324419
8.539999999999935,2.46,2.3102760768992288
8.544999999999936,2.12,2.299372544848173
8.549999999999937,2.12,2.2940267192347905
8.554999999999938,2.12,2.290086072410193
8.559999999999938,2.12,2.287689358391495
8.564999999999939,3.32,2.289709854619944
8.56999999999994,3.32,2.2959636440394218
8.57499999999994,1.88,2.305692773669711
8.579999999999941,1.88,2.319728415152446
8.584999999999942,2.59,2.3355491562943413
8.589999999999943,2.59,2.347369389223671
8.594999999999944,2.07,2.351335579561501
8.599999999999945,2.07,2.348686445210883
8.604999999999945,2.38,2.344532888741206
8.609999999999946,2.38,2.3442055266585324
8.614999999999947,2.82,2.348545776157559
8.619999999999948,2.82,2.3540514680334144
8.624999999999948,1.95,2.3602651784558133
8.62999999999995,1.95,2.370394076478351
8.63499999999995,2.44,2.383360139526264
8.63999999999995,2.44,2.393764660416146
8.644999999999952,2.39,2.4002068231367155
8.649999999999952,2.39,2.4063433531521
8.654999999999953,2.2,2.414602743330529
8.659999999999954,2.2,2.424755108413645
8.664999999999955,3.03,2.435607631722341
8.669999999999956,3.03,2.4449779242392884
8.674999999999956,2.14,2.4527813111595367
8.679999999999957,2.14,2.4609205118446984
8.684999999999958,2.71,2.4670339938431307
8.689999999999959,2.71,2.4666407373247368
8.69499999999996,2.28,2.459446752646795
8.69999999999996,2.28,2.447412420441572
8.704999999999961,2.35,2.431348202460141
8.709999999999962,2.35,2.413392215647342
8.714999999999963,2.89,2.3965296306828177
8.719999999999963,2.89,2.3804154252734184
8.724999999999964,1.86,2.364117341685776
8.729999999999965,1.86,2.3489248950801263
8.734999999999966,2.66,2.3342860234438203
8.739999999999966,2.66,2.317250169695456
8.744999999999967,2.02,2.2971533412557346
8.749999999999968,2.02,2.2764554355379403
8.754999999999969,2.27,2.2572030920775386
8.75999999999997,2.27,2.2412722217560157
8.76499999999997,2.42,2.2307243137818733
8.769999999999971,2.42,2.2248446410145233
8.774999999999972,1.93,2.2240661923579053
8.779999999999973,1.93,2.231674196699604
8.784999999999973,2.43,2.2461753555069635
8.789999999999974,2.43,2.2610238535015363
8.794999999999975,1.92,2.2725780596626675
8.799999999999976,1.92,2.28169994336214
8.804999999999977,2.41,2.288376319177454
8.809999999999977,2.41,2.2921492805938017
8.814999999999978,2.74,2.2942386993159993
8.819999999999979,2.74,2.2957428531545507
8.82499999999998,2.05,2.2980328138689
8.82999999999998,2.05,2.3031113961102725
8.834999999999981,2.5,2.310953615160383
8.839999999999982,2.5,2.318102936647452
8.844999999999983,1.86,2.321660679379708
8.849999999999984,1.86,2.3242963149699385
8.854999999999984,2.34,2.333908358386686
8.859999999999985,2.34,2.3569261034625018
8.864999999999986,2.55,2.3966342746662272
8.869999999999987,2.55,2.450404525285121
8.874999999999988,2.42,2.5082153678833943
8.879999999999988,2.42,2.559288750080627
8.88499999999999,2.46,2.5935482434636774
8.88999999999999,2.46,2.6059721149313386
8.89499999999999,3.0,2.59994097183061
8.899999999999991,3.0,2.5843504233886163
8.904999999999992,3.31,2.5669948408409486
8.909999999999993,3.31,2.5519047138741726
8.914999999999994,1.55,2.5412113840886557
8.919999999999995,1.55,2.5307933592241185
8.924999999999995,2.49,2.5118251299343313
8.929999999999996,2.49,2.480544554809126
8.934999999999997,2.22,2.4427240473402017
8.939999999999998,2.22,2.4099937113582346
8.944999999999999,2.35,2.392308148893172
8.95,2.35,2.3899797569978545
8.955,3.0,2.3959183212076596
8.96,3.0,2.4016224137873583
8.965000000000002,1.96,2.4021383646275996
8.970000000000002,1.96,2.398253866680624
8.975000000000003,2.6,2.390333975558554
8.980000000000004,2.6,2.3771696082559575
8.985000000000005,2.33,2.3610224603291003
8.990000000000006,2.33,2.347211515818951
8.995000000000006,2.21,2.339883161412624
9.000000000000007,2.21,2.34003775118378
9.005000000000008,2.41,2.345165207444572
9.010000000000009,2.41,2.3503957320182782
9.01500000000001,2.05,2.355181483902614
9.02000000000001,2.05,2.3635004998950295
9.025000000000011,2.75,2.3749115436113843
9.030000000000012,2.75,2.38544024199672
9.035000000000013,2.32,2.3949612298736
9.040000000000013,2.32,2.4044350452465193
9.045000000000014,2.3,2.410054490255721
9.050000000000015,2.3,2.4082575194481173
9.055000000000016,2.85,2.4000918110316922
9.060000000000016,2.85,2.3883800627026655
9.065000000000017,1.85,2.376079005542115
9.070000000000018,1.85,2.3662939755338677
9.075000000000019,2.82,2.360553616552068
9.08000000000002,2.82,2.357543070621761
9.08500000000002,1.88,2.3572944187736478
9.090000000000021,1.88,2.3610431605816773
9.095000000000022,2.42,2.3672206579811874
9.100000000000023,2.42,2.374484815525162
9.105000000000024,2.47,2.3840990394333113
9.110000000000024,2.47,2.3946246217151668
9.115000000000025,2.27,2.4012315931578696
9.120000000000026,2.27,2.4034720653223887
9.125000000000027,3.04,2.4041185298641445
9.130000000000027,3.04,2.402047464072509
9.135000000000028,1.84,2.3930684015932786
9.140000000000029,1.84,2.3770435860285986
9.14500000000003,2.79,2.3580307698355187
9.15000000000003,2.79,2.3396097183162743
9.155000000000031,2.0,2.3248657308561547
9.160000000000032,2.0,2.314980445136116
9.165000000000033,2.37,2.309019771953097
9.170000000000034,2.37,2.3075520414221637
9.175000000000034,2.1,2.3124703864666056
9.180000000000035,2.1,2.321045270790628
9.185000000000036,2.35,2.327341086454743
9.190000000000037,2.35,2.331455177688443
9.195000000000038,2.74,2.3378825199866617
9.200000000000038,2.74,2.346595567232552
9.20500000000004,1.98,2.3528097491940945
9.21000000000004,1.98,2.35430082819548
9.21500000000004,2.8,2.3524588995362756
9.220000000000041,2.8,2.348727504014504
9.225000000000042,1.89,2.3452187770378985
9.230000000000043,1.89,2.3439654321345595
9.235000000000044,2.58,2.3441260114481572
9.240000000000045,2.58,2.344897775879222
9.245000000000045,2.1,2.3484692045695654
9.250000000000046,2.1,2.3548766907509955
9.255000000000047,2.4,2.3620289855777536
9.260000000000048,2.4,2.3707672560667667
9.265000000000049,2.77,2.381137461866421
9.27000000000005,2.77,2.390270941988618
9.27500000000005,1.83,2.3988461523361986
9.28000000000005,1.83,2.4103521804869517
9.285000000000052,2.83,2.423181839730694
9.290000000000052,2.83,2.4317029311239287
9.295000000000053,2.27,2.4332723368897815
9.300000000000054,2.27,2.43113598709129
9.305000000000055,2.26,2.432211230586819
9.310000000000056,2.26,2.4406249771214457
9.315000000000056,3.05,2.4547100009191847
9.320000000000057,3.05,2.4685721218855194
9.325000000000058,1.99,2.476737280816219
9.330000000000059,1.99,2.4792396155905596
9.33500000000006,2.49,2.4769464876931635
9.34000000000006,2.49,2.46762487472777
9.345000000000061,2.83,2.4524817626464266
9.350000000000062,2.83,2.43747684032367
9.355000000000063,2.39,2.426941008909451
9.360000000000063,2.39,2.4232012130188765
9.365000000000064,2.35,2.428251060922369
9.370000000000065,2.35,2.4394855595048237
9.375000000000066,1.94,2.4545418302636484
9.380000000000067,1.94,2.475185977592956
9.385000000000067,2.75,2.500439611611883
9.390000000000068,2.75,2.5281007113872733
9.395000000000069,2.31,2.560293620978706
9.40000000000007,2.31,2.5965478340157304
9.40500000000007,2.95,2.628610797702409
9.410000000000071,2.95,2.648423508899472
9.415000000000072,3.18,2.6532624677563836
9.420000000000073,3.18,2.64480178716241
9.425000000000074,2.16,2.6249200277872564
9.430000000000074,2.16,2.595893498262185
9.435000000000075,3.19,2.5600064330074632
9.440000000000076,3.19,2.517674190876539
9.445000000000077,1.84,2.4719088214329568
9.450000000000077,1.84,2.4302881380715546
9.455000000000078,2.48,2.3991211084639557
9.460000000000079,2.48,2.3788047753941113
9.46500000000008,2.19,2.368480380088547
9.47000000000008,2.19,2.3647409503226178
9.475000000000081,2.18,2.3613061037246847
9.480000000000082,2.18,2.357853458015572
9.485000000000083,3.3,2.358411342282855
9.490000000000084,3.3,2.3634668827808105
9.495000000000084,2.03,2.3719615698875103
9.500000000000085,2.03,2.384443739391998
9.505000000000086,2.71,2.398951661866533
9.510000000000087,2.71,2.4107957963563513
9.515000000000088,1.84,2.4172871703543066
9.520000000000088,1.84,2.4189308856470397
9.52500000000009,2.55,2.4168387043084363
9.53000000000009,2.55,2.4141577444357485
9.53500000000009,2.72,2.4169626264336195
9.540000000000092,2.72,2.425779121977785
9.545000000000092,2.22,2.4333305019100884
9.550000000000093,2.22,2.4340217701926736
9.555000000000094,2.72,2.4275737890295566
9.560000000000095,2.72,2.4156223816507594
9.565000000000095,1.9,2.400223977832771
9.570000000000096,1.9,2.3841299247772345
9.575000000000097,3.33,2.3696301569110854
9.580000000000098,3.33,2.3588815828598313
9.585000000000099,1.82,2.3551559822837476
9.5900000000001,1.82,2.3574377445992454
9.5950000000001,2.43,2.36036461557134
9.600000000000101,2.43,2.362286824275502
9.605000000000102,2.45,2.364646709248209
9.610000000000102,2.45,2.366032507623405
9.615000000000103,2.17,2.3634967969641845
9.620000000000104,2.17,2.3588381728748615
9.625000000000105,3.36,2.3558897585970096
9.630000000000106,3.36,2.35440248336466
9.635000000000106,1.9,2.3535122762756306
9.640000000000107,1.9,2.3551767763190314
9.645000000000108,2.56,2.3587513196955885
9.650000000000109,2.56,2.3606904490264253
9.65500000000011,2.04,2.3603044952950447
9.66000000000011,2.04,2.359135372464996
9.665000000000111,2.35,2.3600856975185205
9.670000000000112,2.35,2.3666156994673058
9.675000000000113,3.45,2.378305623836132
9.680000000000113,3.45,2.391312187515738
9.685000000000114,1.93,2.40419982548561
9.690000000000115,1.93,2.418735110587516
9.695000000000116,2.59,2.4338968116315756
9.700000000000117,2.59,2.4451015535750154
9.705000000000117,2.47,2.452229889821075
9.710000000000118,2.47,2.4621133749833852
9.715000000000119,2.22,2.478049063797437
9.72000000000012,2.22,2.4961451974728828
9.72500000000012,2.87,2.5164061062068424
9.730000000000121,2.87,2.539240767540305
9.735000000000122,2.18,2.556928688126733
9.740000000000123,2.18,2.564878939404451
9.745000000000124,3.44,2.569826839474488
9.750000000000124,3.44,2.576902372310809
9.755000000000125,1.99,2.5799498108048624
9.760000000000126,1.99,2.5721548910611727
9.765000000000127,3.42,2.555182317818627
9.770000000000127,3.42,2.535372169799057
9.775000000000128,1.96,2.5147760708699285
9.780000000000129,1.96,2.4885494770971475
9.78500000000013,3.0,2.45494838076
9.79000000000013,3.0,2.422474609084722
9.795000000000131,1.93,2.3999502863955913
9.800000000000132,1.93,2.384778951265851
9.805000000000133,2.52,2.3719218466098706
9.810000000000134,2.52,2.3648484435273596
9.815000000000135,2.11,2.3685914094660685
9.820000000000135,2.11,2.3799716552698618
9.825000000000136,2.28,2.3913408176183277
9.830000000000137,2.28,2.400588972000087
9.835000000000138,2.86,2.4088772769602893
9.840000000000138,2.86,2.41574556884211
9.84500000000014,2.17,2.422744758199624
9.85000000000014,2.17,2.4326641732828285
9.85500000000014,3.01,2.442810954277024
9.860000000000142,3.01,2.4474101405690303
9.865000000000142,1.83,2.4439929693259845
9.870000000000143,1.83,2.4340565184459964
9.875000000000144,2.45,2.4208780318236744
9.880000000000145,2.45,2.4096612958820245
9.885000000000145,2.76,2.407507859652464
9.890000000000146,2.76,2.417378456720012
9.895000000000147,1.98,2.440642699159283
9.900000000000148,1.98,2.478560094251582
9.905000000000149,2.58,2.5227824904903593
9.91000000000015,2.58,2.5579294037909985
9.91500000000015,2.33,2.575011029749176
9.920000000000151,2.33,2.577244693590836
9.925000000000152,3.04,2.57220235196681
9.930000000000152,3.04,2.5655465498383707
9.935000000000153,3.27,2.559955802580672
9.940000000000154,3.27,2.5540610749581356
9.945000000000155,2.08,2.546002302672892
9.950000000000156,2.08,2.5349723016779366
9.955000000000156,2.41,2.517517890836527
9.960000000000157,2.41,2.495339298078639
9.965000000000158,2.24,2.4653101713225656
9.970000000000159,2.24,2.4329910198040454
9.97500000000016,2.39,2.401278956432083
9.98000000000016,2.39,2.3716156439565723
9.985000000000161,3.12,2.3446183857577347
9.990000000000162,3.12,2.320333928413419
9.995000000000163,1.99,2.2980929092239055
10.000000000000163,1.99,2.2767776898612904
