time,voltage,lowess
0.005,1.5,1.801662484534058
0.01,1.5,1.8156290034311129
0.015,1.77,1.8293059930489264
0.02,1.77,1.8427259515420555
0.025,2.24,1.8559329529626485
0.030000000000000002,2.24,1.8689754277929913
0.035,1.74,1.8818852211503545
0.04,1.74,1.894676681163693
0.045,1.97,1.907368362855513
0.049999999999999996,1.97,1.9199872124575414
0.05499999999999999,2.39,1.9325586666331718
0.05999999999999999,2.39,1.9450998645256616
0.06499999999999999,1.46,1.9576005273615522
0.06999999999999999,1.46,1.9700180255742057
0.075,2.44,1.9823089657739477
0.08,2.44,1.9944314538205679
0.085,1.95,2.006282643538006
0.09000000000000001,1.95,2.0176189569494034
0.09500000000000001,1.93,2.0279309540269335
0.10000000000000002,1.93,2.036285351073627
0.10500000000000002,2.23,2.0421400094425928
0.11000000000000003,2.23,2.0472819699723415
0.11500000000000003,1.74,2.0520527248970852
0.12000000000000004,1.74,2.0566700367787614
0.12500000000000003,2.48,2.061059024304876
0.13000000000000003,2.48,2.0649837254671466
0.13500000000000004,1.7,2.0685558622478424
0.14000000000000004,1.7,2.0721737355979375
0.14500000000000005,2.1,2.0759505514789027
0.15000000000000005,2.1,2.0797039294484465
0.15500000000000005,2.47,2.0832374341049475
0.16000000000000006,2.47,2.086414949654157
0.16500000000000006,1.48,2.0894533149662076
0.17000000000000007,1.48,2.0928370413163293
0.17500000000000007,2.43,2.0966038979458768
0.18000000000000008,2.43,2.100327876485403
0.18500000000000008,2.04,2.1038450457151625
0.19000000000000009,2.04,2.107333832108135
0.1950000000000001,2.0,2.1108951396269764
0.2000000000000001,2.0,2.1145027458198866
0.2050000000000001,2.3,2.118062234068093
0.2100000000000001,2.3,2.1214220044094714
0.2150000000000001,1.86,2.1245634447519564
0.2200000000000001,1.86,2.1276016890019935
0.22500000000000012,2.54,2.1303848498192717
0.23000000000000012,2.54,2.132542428169299
0.23500000000000013,1.72,2.1341266432443655
0.24000000000000013,1.72,2.1355929141239276
0.24500000000000013,2.15,2.137128424275676
0.2500000000000001,2.15,2.1385612309353053
0.2550000000000001,2.52,2.1396182686889698
0.2600000000000001,2.52,2.140066519517974
0.2650000000000001,1.62,2.1400736733630237
0.27000000000000013,1.62,2.1401189938114986
0.27500000000000013,2.57,2.140293597618709
0.28000000000000014,2.57,2.1402628226678355
0.28500000000000014,2.04,2.1399005975890955
0.29000000000000015,2.04,2.139387125675894
0.29500000000000015,2.16,2.138894639217502
0.30000000000000016,2.16,2.138515988015351
0.30500000000000016,2.23,2.1382245063580116
0.31000000000000016,2.23,2.1379037470288234
0.31500000000000017,1.85,2.137662787844945
0.3200000000000002,1.85,2.137773716168509
0.3250000000000002,2.56,2.1381594866380804
0.3300000000000002,2.56,2.1384572043665093
0.3350000000000002,1.8,2.138672219948876
0.3400000000000002,1.8,2.1392065078828706
0.3450000000000002,2.03,2.140240432727065
0.3500000000000002,2.03,2.141603694880818
0.3550000000000002,2.49,2.1429903700983997
0.3600000000000002,2.49,2.144133147384834
0.3650000000000002,1.52,2.145219059194681
0.3700000000000002,1.52,2.146785303083535
0.3750000000000002,2.42,2.1489660356162394
0.3800000000000002,2.42,2.151449244870658
0.38500000000000023,2.08,2.1541666877654433
0.39000000000000024,2.08,2.157358220536768
0.39500000000000024,2.12,2.1611244086109864
0.40000000000000024,2.12,2.1653260927283378
0.40500000000000025,2.44,2.1696305315507782
0.41000000000000025,2.44,2.1736998202002376
0.41500000000000026,1.87,2.177559183090644
0.42000000000000026,1.87,2.181456907398266
0.42500000000000027,2.53,2.185297538245059
0.43000000000000027,2.53,2.1887120856486333
0.4350000000000003,1.95,2.1917487968439784
0.4400000000000003,1.95,2.194845536778291
0.4450000000000003,2.04,2.198150594814066
0.4500000000000003,2.04,2.2015064040019987
0.4550000000000003,2.75,2.2047516765215174
0.4600000000000003,2.75,2.2077797696817862
0.4650000000000003,1.56,2.2108307278104493
0.4700000000000003,1.56,2.214392681753694
0.4750000000000003,2.6,2.2185223572567643
0.4800000000000003,2.6,2.2228809509480514
0.4850000000000003,2.13,2.227389457890537
0.4900000000000003,2.13,2.2322161611028752
0.49500000000000033,1.98,2.2373134032361883
0.5000000000000003,1.98,2.2424816029893653
0.5050000000000003,2.6,2.2477133266201643
0.5100000000000003,2.6,2.25305300648039
0.5150000000000003,1.94,2.2584395477491825
0.5200000000000004,1.94,2.263818270394156
0.5250000000000004,2.77,2.268928880451719
0.5300000000000004,2.77,2.273347893528182
0.5350000000000004,1.92,2.277105597022163
0.5400000000000004,1.92,2.2806424437360655
0.5450000000000004,2.3,2.284146653641428
0.5500000000000004,2.3,2.2875324796998124
0.5550000000000004,2.71,2.290666599970893
0.5600000000000004,2.71,2.2933887786509097
0.5650000000000004,1.7,2.295876273274405
0.5700000000000004,1.7,2.2985737624604683
0.5750000000000004,2.65,2.301453215109619
0.5800000000000004,2.65,2.3040437524311415
0.5850000000000004,2.03,2.3062109992961743
0.5900000000000004,2.03,2.3082283726335153
0.5950000000000004,2.69,2.310299107944772
0.6000000000000004,2.69,2.3125076150167256
0.6050000000000004,2.18,2.314788845761046
0.6100000000000004,2.18,2.316845170461311
0.6150000000000004,2.07,2.3184449122830273
0.6200000000000004,2.07,2.3195827233892405
0.6250000000000004,2.91,2.320139936039709
0.6300000000000004,2.91,2.3198577352984806
0.6350000000000005,1.81,2.3189271541578433
0.6400000000000005,1.81,2.3179410168848555
0.6450000000000005,2.38,2.317167670876072
0.6500000000000005,2.38,2.316521106248799
0.6550000000000005,2.72,2.3159848343614864
0.6600000000000005,2.72,2.315600286325394
0.6650000000000005,1.68,2.3155764364187803
0.6700000000000005,1.68,2.316297501971684
0.6750000000000005,2.77,2.3177521908576373
0.6800000000000005,2.77,2.3195151072522715
0.6850000000000005,2.12,2.3214111909588664
0.6900000000000005,2.12,2.3235482869164543
0.6950000000000005,2.4,2.3257001448031005
0.7000000000000005,2.4,2.327316637741523
0.7050000000000005,2.22,2.3282284367687445
0.7100000000000005,2.22,2.3287273781602313
0.7150000000000005,2.12,2.329096863829283
0.7200000000000005,2.12,2.3295019405361646
0.7250000000000005,2.96,2.329902978370492
0.7300000000000005,2.96,2.330102637058725
0.7350000000000005,1.66,2.3303156048149107
0.7400000000000005,1.66,2.3311563861089315
0.7450000000000006,2.59,2.3328727517570194
0.7500000000000006,2.59,2.3352734912381066
0.7550000000000006,2.49,2.3382067086918603
0.7600000000000006,2.49,2.341570233541194
0.7650000000000006,2.0,2.3453792868609837
0.7700000000000006,2.0,2.3498141957529297
0.7750000000000006,2.61,2.35471602698111
0.7800000000000006,2.61,2.359534015255336
0.7850000000000006,2.01,2.363987729790467
0.7900000000000006,2.01,2.3681567337261544
0.7950000000000006,2.65,2.371950687921318
0.8000000000000006,2.65,2.375144631362953
0.8050000000000006,2.25,2.3778456285695766
0.8100000000000006,2.25,2.3803899214471835
0.8150000000000006,2.24,2.3828614380654725
0.8200000000000006,2.24,2.3851364012846665
0.8250000000000006,2.89,2.387038580340782
0.8300000000000006,2.89,2.388372400124227
0.8350000000000006,1.74,2.389302690977593
0.8400000000000006,1.74,2.390290928704653
0.8450000000000006,2.73,2.3913938109108197
0.8500000000000006,2.73,2.392262483028257
0.8550000000000006,2.47,2.392781459157001
0.8600000000000007,2.47,2.3930389594037136
0.8650000000000007,2.16,2.3930001138949826
0.8700000000000007,2.16,2.3926615314718855
0.8750000000000007,2.69,2.3921112459481844
0.8800000000000007,2.69,2.3913541966663296
0.8850000000000007,2.07,2.39043121148362
0.8900000000000007,2.07,2.389497805590336
0.8950000000000007,2.85,2.388470195452674
0.9000000000000007,2.85,2.3870380838121092
0.9050000000000007,1.78,2.385235986229085
0.9100000000000007,1.78,2.3834140897318035
0.9150000000000007,2.36,2.3817142472452595
0.9200000000000007,2.36,2.3801048488716545
0.9250000000000007,2.68,2.378577491161807
0.9300000000000007,2.68,2.3771124798242216
0.9350000000000007,1.88,2.375998876794714
0.9400000000000007,1.88,2.3757928516866667
0.9450000000000007,2.8,2.3765776992567704
0.9500000000000007,2.8,2.3779340037039587
0.9550000000000007,2.11,2.3796270735118306
0.9600000000000007,2.11,2.3816746700237457
0.9650000000000007,2.54,2.3840678903351593
0.9700000000000008,2.54,2.386757039917798
0.9750000000000008,2.41,2.389460165502985
0.9800000000000008,2.41,2.391727740457393
0.9850000000000008,2.13,2.3935099353454223
0.9900000000000008,2.13,2.395095596693351
0.9950000000000008,3.02,2.3964264149517502
1.0000000000000007,3.02,2.3971378682934477
1.0050000000000006,1.81,2.3972679834880455
1.0100000000000005,1.81,2.397265501192362
1.0150000000000003,2.52,2.3972962152337605
1.0200000000000002,2.52,2.397165679019188
1.0250000000000001,2.77,2.3965757004466215
1.03,2.77,2.395269272740353
1.035,1.75,2.393439520190621
1.0399999999999998,1.75,2.3916122509188633
1.0449999999999997,2.75,2.3898825335387235
1.0499999999999996,2.75,2.387876986773383
1.0549999999999995,2.25,2.385520855744797
1.0599999999999994,2.25,2.3831704535926406
1.0649999999999993,2.26,2.381071766501462
1.0699999999999992,2.26,2.379161482055149
1.074999999999999,2.69,2.377216647865249
1.079999999999999,2.69,2.3750978133887735
1.0849999999999989,2.05,2.373013491169093
1.0899999999999987,2.05,2.371340516218476
1.0949999999999986,2.75,2.3700981718284018
1.0999999999999985,2.75,2.3689956265226675
1.1049999999999984,1.94,2.368049675605682
1.1099999999999983,1.94,2.3676209206154994
1.1149999999999982,2.23,2.367793807430368
1.119999999999998,2.23,2.3682719624050814
1.124999999999998,2.85,2.368707670678085
1.129999999999998,2.85,2.3689128758241678
1.1349999999999978,1.71,2.3692577944388886
1.1399999999999977,1.71,2.3705194891905803
1.1449999999999976,2.75,2.3731329193384143
1.1499999999999975,2.75,2.377126085233155
1.1549999999999974,2.36,2.3827703189922707
1.1599999999999973,2.36,2.390697184329857
1.1649999999999971,2.06,2.4016328762197405
1.169999999999997,2.06,2.4160380798525822
1.174999999999997,2.78,2.433695461203148
1.1799999999999968,2.78,2.4540046901150503
1.1849999999999967,2.14,2.4766900697791385
1.1899999999999966,2.14,2.5018942964893687
1.1949999999999965,2.61,2.529844274378242
1.1999999999999964,2.61,2.5606462494777573
1.2049999999999963,2.06,2.5943934771802826
1.2099999999999962,2.06,2.6313168779404026
1.214999999999996,2.3,2.6715594958654436
1.219999999999996,2.3,2.714956479048818
1.2249999999999959,3.0,2.76061012847902
1.2299999999999958,3.0,2.806976186270857
1.2349999999999957,1.6,2.852386217032413
1.2399999999999956,1.6,2.894749275011602
1.2449999999999954,3.0,2.930735462841696
1.2499999999999953,3.0,2.956981740325163
1.2549999999999952,3.19,2.9718819685115614
1.2599999999999951,3.19,2.976865792101555
1.264999999999995,2.03,2.9762513312853818
1.269999999999995,2.03,2.9744025054785137
1.2749999999999948,3.73,2.9731929623842275
1.2799999999999947,3.73,2.972343436134163
1.2849999999999946,3.67,2.970685337066262
1.2899999999999945,3.67,2.967212481265123
1.2949999999999944,4.09,2.9611401334566008
1.2999999999999943,4.09,2.9517058810925696
1.3049999999999942,4.09,2.9384942334537856
1.309999999999994,4.09,2.92144623987461
1.314999999999994,2.12,2.9006486982339066
1.3199999999999938,2.12,2.8765508918358766
1.3249999999999937,3.39,2.849658107306478
1.3299999999999936,3.39,2.8200055611045647
1.3349999999999935,2.26,2.7869690776563507
1.3399999999999934,2.26,2.748802956229101
1.3449999999999933,2.69,2.7044602578248536
1.3499999999999932,2.69,2.6554103966157325
1.354999999999993,3.09,2.604489413475331
1.359999999999993,3.09,2.554392931205931
1.3649999999999929,2.04,2.5071346016412095
1.3699999999999928,2.04,2.4639705951453417
1.3749999999999927,2.24,2.4252141077455565
1.3799999999999926,2.24,2.39013988651502
1.3849999999999925,2.4,2.3577439904638235
1.3899999999999924,2.4,2.3271935567674205
1.3949999999999922,2.45,2.2980993690157208
1.3999999999999921,2.45,2.2704477427953167
1.404999999999992,2.11,2.2440412680362223
1.409999999999992,2.11,2.2185064036048376
1.4149999999999918,1.73,2.193533419681159
1.4199999999999917,1.73,2.169041440172407
1.4249999999999916,1.94,2.1453452582131023
1.4299999999999915,1.94,2.1229141063859287
1.4349999999999914,2.53,2.1024918278520732
1.4399999999999913,2.53,2.0850337452959034
1.4449999999999912,1.92,2.0711076167620193
1.449999999999991,1.92,2.0606991920317945
1.454999999999991,2.67,2.0535187700142252
1.4599999999999909,2.67,2.0491027776725645
1.4649999999999908,1.33,2.0468731913074483
1.4699999999999906,1.33,2.046344510623729
1.4749999999999905,1.93,2.046899567970339
1.4799999999999904,1.93,2.047902792438095
1.4849999999999903,2.17,2.0489670342155133
1.4899999999999902,2.17,2.0497038659373583
1.4949999999999901,1.54,2.0494391395473013
1.49999999999999,1.54,2.047312835034644
1.50499999999999,1.65,2.042516254280459
1.5099999999999898,1.65,2.034701788725521
1.5149999999999897,2.63,2.024298311341074
1.5199999999999896,2.63,2.012155274689855
1.5249999999999895,2.27,1.998663764525655
1.5299999999999894,2.27,1.983691145911544
1.5349999999999893,2.16,1.9667780000781319
1.5399999999999892,2.16,1.9474638099591017
1.544999999999989,2.42,1.926118139063136
1.549999999999989,2.42,1.9037438348547029
1.5549999999999888,1.98,1.8808768735231205
1.5599999999999887,1.98,1.8574691795202927
1.5649999999999886,1.12,1.8336929667239015
1.5699999999999885,1.12,1.8098233536999075
1.5749999999999884,2.95,1.7855765928844476
1.5799999999999883,2.95,1.7605519458729533
1.5849999999999882,1.77,1.7349104854156554
1.589999999999988,1.77,1.7091389119085414
1.594999999999988,1.43,1.6837519347656706
1.5999999999999879,1.43,1.659302597209728
1.6049999999999878,3.0,1.6362375828898124
1.6099999999999877,3.0,1.6148106022238706
1.6149999999999876,1.32,1.59497350551674
1.6199999999999875,1.32,1.5765784898087518
1.6249999999999873,1.11,1.5599536880903233
1.6299999999999872,1.11,1.545800050680042
1.6349999999999871,1.83,1.5349918133856713
1.639999999999987,1.83,1.5281359705762572
1.644999999999987,1.16,1.5249724828639515
1.6499999999999868,1.16,1.5245857981529836
1.6549999999999867,1.98,1.5260158994961097
1.6599999999999866,1.98,1.5286641060775847
1.6649999999999865,3.44,1.5326353956322323
1.6699999999999864,3.44,1.538634494525623
1.6749999999999863,1.85,1.5473842419100559
1.6799999999999862,1.85,1.5592672499022682
1.684999999999986,1.45,1.574106943665519
1.689999999999986,1.45,1.5911429253370972
1.6949999999999859,1.42,1.6093647227254233
1.6999999999999857,1.42,1.6277564548753816
1.7049999999999856,0.94,1.6451726620838922
1.7099999999999855,0.94,1.6607686396361674
1.7149999999999854,3.12,1.67456305061699
1.7199999999999853,3.12,1.687214454493349
1.7249999999999852,2.15,1.699671471258012
1.729999999999985,2.15,1.7128881536763954
1.734999999999985,1.23,1.7271510510036714
1.739999999999985,1.23,1.7420549502828602
1.7449999999999848,1.52,1.757551868350509
1.7499999999999847,1.52,1.774078903349667
1.7549999999999846,2.12,1.7915765762056481
1.7599999999999845,2.12,1.8093403891491338
1.7649999999999844,2.5,1.8266958724044857
1.7699999999999843,2.5,1.8430501631732232
1.7749999999999841,1.97,1.8573789847980529
1.779999999999984,1.97,1.8681692254324307
1.784999999999984,1.87,1.8741128188275589
1.7899999999999838,1.87,1.8747241271143142
1.7949999999999837,1.44,1.8702440943740035
1.7999999999999836,1.44,1.861535309538705
1.8049999999999835,2.43,1.8499999111878582
1.8099999999999834,2.43,1.8370550080705879
1.8149999999999833,2.27,1.8232833615759743
1.8199999999999832,2.27,1.80850455638031
1.824999999999983,1.59,1.7926360617865387
1.829999999999983,1.59,1.7758136377322378
1.8349999999999829,2.27,1.7584719392787076
1.8399999999999828,2.27,1.7413097507219284
1.8449999999999827,1.41,1.7246183896246146
1.8499999999999825,1.41,1.7083131453068345
1.8549999999999824,0.84,1.6920745335356815
1.8599999999999823,0.84,1.6753411983914042
1.8649999999999822,0.52,1.6576596528662577
1.8699999999999821,0.52,1.6387108362169722
1.874999999999982,1.66,1.6184131662832746
1.879999999999982,1.66,1.5970403298335059
1.8849999999999818,1.52,1.575090000948363
1.8899999999999817,1.52,1.5532833033860411
1.8949999999999816,1.72,1.5324640168133983
1.8999999999999815,1.72,1.5134765409055664
1.9049999999999814,0.93,1.4967205121610785
1.9099999999999813,0.93,1.4818121232340542
1.9149999999999812,1.92,1.4678825417759798
1.919999999999981,1.92,1.4539090967335342
1.924999999999981,1.82,1.4391585732598124
1.9299999999999808,1.82,1.4234177607567833
1.9349999999999807,1.15,1.4066559524209588
1.9399999999999806,1.15,1.3889463914982738
1.9449999999999805,1.13,1.3707496069089227
1.9499999999999804,1.13,1.352730171470069
1.9549999999999803,1.36,1.3353721952687998
1.9599999999999802,1.36,1.3188940458174894
1.96499999999998,2.39,1.303204509490875
1.96999999999998,2.39,1.2880937434955737
1.9749999999999799,2.48,1.2735988952066661
1.9799999999999798,2.48,1.2597977375934113
1.9849999999999797,1.1,1.2465077491118772
1.9899999999999796,1.1,1.233479744187628
1.9949999999999795,2.32,1.2204410767171368
1.9999999999999793,2.32,1.2071701087686675
2.0049999999999795,0.89,1.1938532154303305
2.0099999999999794,0.89,1.1812262126455104
2.0149999999999793,1.21,1.1698083430431943
2.019999999999979,1.21,1.1592806770469672
2.024999999999979,1.06,1.1489057923153942
2.029999999999979,1.06,1.1378934323037708
2.034999999999979,1.27,1.1259573216081504
2.0399999999999787,1.27,1.113738871212529
2.0449999999999786,1.22,1.1022895567283255
2.0499999999999785,1.22,1.0926451932204653
2.0549999999999784,1.05,1.0853564806524996
2.0599999999999783,1.05,1.080258203459157
2.064999999999978,1.6,1.07657779405272
2.069999999999978,1.6,1.073268845222902
2.074999999999978,0.81,1.0694093044040835
2.079999999999978,0.81,1.064364380580201
2.0849999999999778,0.76,1.0578575316707515
2.0899999999999777,0.76,1.0498355318779493
2.0949999999999775,0.98,1.0401934750909787
2.0999999999999774,0.98,1.0288341675814927
2.1049999999999773,0.82,1.0159321560775396
2.1099999999999772,0.82,1.0019234713663616
2.114999999999977,2.35,0.9872353724636886
2.119999999999977,2.35,0.9721789607972869
2.124999999999977,1.44,0.9569494773108965
2.129999999999977,1.44,0.9417370583294244
2.1349999999999767,1.27,0.926762473513101
2.1399999999999766,1.27,0.9121705196525692
2.1449999999999765,0.91,0.8981918424371963
2.1499999999999764,0.91,0.8851988226791427
2.1549999999999763,0.63,0.8737811681220159
2.159999999999976,0.63,0.8643951338651065
2.164999999999976,0.89,0.8566668526310959
2.169999999999976,0.89,0.8496649499456504
2.174999999999976,3.1,0.8428978569321307
2.1799999999999757,3.1,0.8364756583381385
2.1849999999999756,0.65,0.830484328084168
2.1899999999999755,0.65,0.824884507275962
2.1949999999999754,2.64,0.8195420628067993
2.1999999999999753,2.64,0.814297993308092
2.204999999999975,0.7,0.8092953716515234
2.209999999999975,0.7,0.8048457679877072
2.214999999999975,0.47,0.8010941137341498
2.219999999999975,0.47,0.7982926884368973
2.2249999999999748,2.92,0.7968111863258491
2.2299999999999747,2.92,0.7967579567369665
2.2349999999999746,0.91,0.7981657387669131
2.2399999999999745,0.91,0.8009310570295934
2.2449999999999743,1.29,0.8047927776398516
2.2499999999999742,1.29,0.809571442081836
2.254999999999974,0.46,0.8153135462744427
2.259999999999974,0.46,0.8223843138710475
2.264999999999974,1.48,0.8312066192425568
2.269999999999974,1.48,0.8420783156788522
2.2749999999999737,0.71,0.8548801945274618
2.2799999999999736,0.71,0.868936848403942
2.2849999999999735,0.72,0.8830418008594184
2.2899999999999734,0.72,0.8958939761613965
2.2949999999999733,1.1,0.9071994237974231
2.299999999999973,1.1,0.9174578830911899
2.304999999999973,0.42,0.9267266767156428
2.309999999999973,0.42,0.9347037929082105
2.314999999999973,0.58,0.9414462033516481
2.3199999999999728,0.58,0.9474164315319072
2.3249999999999726,2.12,0.9533693930457333
2.3299999999999725,2.12,0.9600631331540975
2.3349999999999724,2.21,0.967995722621794
2.3399999999999723,2.21,0.9773558212368029
2.344999999999972,1.71,0.9880931955639711
2.349999999999972,1.71,1.0000314633897953
2.354999999999972,2.1,1.0132748937099427
2.359999999999972,2.1,1.0282977935795432
2.364999999999972,0.64,1.0450681555178931
2.3699999999999717,0.64,1.0626067838473237
2.3749999999999716,0.66,1.0797714204909186
2.3799999999999715,0.66,1.0958724282195729
2.3849999999999714,1.89,1.1101995060753924
2.3899999999999713,1.89,1.12177127634367
2.394999999999971,0.78,1.129534770585311
2.399999999999971,0.78,1.1329981522714934
2.404999999999971,1.17,1.1331934879481658
2.409999999999971,1.17,1.1323163118974602
2.4149999999999707,1.27,1.1322925078598747
2.4199999999999706,1.27,1.1341223252932249
2.4249999999999705,1.16,1.1379811565668485
2.4299999999999704,1.16,1.1435242698197334
2.4349999999999703,1.14,1.1503191887618625
2.43999999999997,1.14,1.1579474987730654
2.44499999999997,1.43,1.166048098888584
2.44999999999997,1.43,1.1741899242589156
2.45499999999997,0.84,1.1817536681156344
2.4599999999999698,0.84,1.188195966091707
2.4649999999999697,0.88,1.1934947074662114
2.4699999999999696,0.88,1.198067094913312
2.4749999999999694,1.35,1.2021036630276831
2.4799999999999693,1.35,1.2054970030627798
2.4849999999999692,1.83,1.2078610271813308
2.489999999999969,1.83,1.2086653802181304
2.494999999999969,1.14,1.2078989974538292
2.499999999999969,1.14,1.2060734058823661
2.504999999999969,0.97,1.2036401391183624
2.5099999999999687,0.97,1.2007636949121683
2.5149999999999686,1.36,1.1973021548664282
2.5199999999999685,1.36,1.1929577611454367
2.5249999999999684,1.23,1.1875420785669897
2.5299999999999683,1.23,1.1810635396425673
2.534999999999968,1.65,1.1737703400427686
2.539999999999968,1.65,1.1659476568576357
2.544999999999968,0.87,1.157529912954867
2.549999999999968,0.87,1.148172051511817
2.5549999999999677,1.61,1.1376799691925923
2.5599999999999676,1.61,1.1262325355819882
2.5649999999999675,0.67,1.1141364961948375
2.5699999999999674,0.67,1.1016713523521544
2.5749999999999673,0.78,1.0890404235366913
2.579999999999967,0.78,1.0762967680206752
2.584999999999967,1.45,1.063637243862319
2.589999999999967,1.45,1.0514279805314446
2.594999999999967,1.08,1.0400764602166255
2.599999999999967,1.08,1.0301947038154162
2.6049999999999667,0.53,1.0227058396417334
2.6099999999999666,0.53,1.018543417009718
2.6149999999999665,1.03,1.018470765848866
2.6199999999999664,1.03,1.0228388766956062
2.6249999999999662,1.29,1.0315668397909774
2.629999999999966,1.29,1.0441473557096523
2.634999999999966,0.79,1.0591896188167818
2.639999999999966,0.79,1.074913407859719
2.644999999999966,0.77,1.0898925412726057
2.6499999999999657,0.77,1.1034172706102197
2.6549999999999656,2.32,1.1156209190540394
2.6599999999999655,2.32,1.1267702687498151
2.6649999999999654,2.29,1.1367600021447886
2.6699999999999653,2.29,1.1456783351326836
2.674999999999965,2.05,1.154036992495204
2.679999999999965,2.05,1.1624058570902025
2.684999999999965,0.57,1.170901148443941
2.689999999999965,0.57,1.1791419632940798
2.6949999999999648,1.23,1.1869291303032588
2.6999999999999647,1.23,1.1943858400179796
2.7049999999999645,1.58,1.2015998685105131
2.7099999999999644,1.58,1.2086264738898977
2.7149999999999643,1.95,1.2149022575896302
2.7199999999999642,1.95,1.2189971804454427
2.724999999999964,0.86,1.219221270211853
2.729999999999964,0.86,1.2143460805191673
2.734999999999964,1.07,1.204652113963495
2.739999999999964,1.07,1.1919327274945906
2.7449999999999637,2.08,1.1783940249121108
2.7499999999999636,2.08,1.1658700850987538
2.7549999999999635,0.56,1.1553239646334608
2.7599999999999634,0.56,1.1467870290506863
2.7649999999999633,1.37,1.1399468407649669
2.769999999999963,1.37,1.1344471488317749
2.774999999999963,0.98,1.1298770299630558
2.779999999999963,0.98,1.1258809225231818
2.784999999999963,1.25,1.1225768790254902
2.7899999999999627,1.25,1.1205335454672511
2.7949999999999626,0.83,1.1199031935894084
2.7999999999999625,0.83,1.1201339275323374
2.8049999999999624,0.75,1.120429037023715
2.8099999999999623,0.75,1.1199499797137318
2.814999999999962,1.08,1.1179897074046838
2.819999999999962,1.08,1.1142362757081827
2.824999999999962,1.38,1.1091492738378672
2.829999999999962,1.38,1.1036832319271257
2.8349999999999618,1.48,1.0983544900502886
2.8399999999999617,1.48,1.0932481400652225
2.8449999999999616,1.24,1.0885233504928318
2.8499999999999615,1.24,1.0843237992177222
2.8549999999999613,2.12,1.0806703010471246
2.8599999999999612,2.12,1.0776255152744838
2.864999999999961,0.93,1.0752358461883837
2.869999999999961,0.93,1.0732687851840836
2.874999999999961,1.17,1.0712312470118137
2.879999999999961,1.17,1.0685697630862883
2.8849999999999607,0.53,1.064550238616206
2.8899999999999606,0.53,1.058445283483667
2.8949999999999605,1.06,1.0501668563813151
2.8999999999999604,1.06,1.0403765674348784
2.9049999999999603,0.72,1.0302094852869583
2.90999999999996,0.72,1.020991630073628
2.91499999999996,1.7,1.013803997141237
2.91999999999996,1.7,1.0092788644133892
2.92499999999996,0.41,1.007689316384056
2.9299999999999597,0.41,1.0088744864734904
2.9349999999999596,1.32,1.0123743870636668
2.9399999999999595,1.32,1.0175908307848858
2.9449999999999594,0.9,1.0239402969924356
2.9499999999999593,0.9,1.030869574992418
2.954999999999959,1.27,1.0376069365054894
2.959999999999959,1.27,1.043285679695265
2.964999999999959,0.85,1.046936962480934
2.969999999999959,0.85,1.047578307160837
2.974999999999959,0.7,1.0443782884091717
2.9799999999999587,0.7,1.036893911016851
2.9849999999999586,1.8,1.0255094471187365
2.9899999999999585,1.8,1.0113283759875458
2.9949999999999584,1.44,0.9955490780717575
2.9999999999999583,1.44,0.9791271870577621
3.004999999999958,0.83,0.9626591924930875
3.009999999999958,0.83,0.9465174605422938
3.014999999999958,1.29,0.930917583615758
3.019999999999958,1.29,0.9156953586019673
3.0249999999999577,1.03,0.9005186383680888
3.0299999999999576,1.03,0.8852567847352613
3.0349999999999575,2.13,0.8697331913313463
3.0399999999999574,2.13,0.8535064700600428
3.0449999999999573,0.42,0.8363048111055985
3.049999999999957,0.42,0.8182227220303445
3.054999999999957,0.56,0.7994710003613249
3.059999999999957,0.56,0.7802797877328667
3.064999999999957,0.54,0.7612535619758294
3.0699999999999568,0.54,0.7434651697027436
3.0749999999999567,0.85,0.7281144309518736
3.0799999999999566,0.85,0.7163153112827376
3.0849999999999564,0.79,0.7088643871434622
3.0899999999999563,0.79,0.7061605885193655
3.0949999999999562,0.47,0.7084376538604603
3.099999999999956,0.47,0.7156481896618363
3.104999999999956,0.75,0.7273898865755687
3.109999999999956,0.75,0.7429266379293752
3.114999999999956,0.47,0.761114887437893
3.1199999999999557,0.47,0.7805377632837711
3.1249999999999556,0.69,0.7998616191628461
3.1299999999999555,0.69,0.8180891924616485
3.1349999999999554,0.84,0.8346585969054506
3.1399999999999553,0.84,0.849499702016922
3.144999999999955,0.86,0.862733336192355
3.149999999999955,0.86,0.8745484548521457
3.154999999999955,1.07,0.885105056321652
3.159999999999955,1.07,0.8944972507473852
3.1649999999999547,1.14,0.9027473444275015
3.1699999999999546,1.14,0.9097822279012988
3.1749999999999545,1.27,0.9153525856458716
3.1799999999999544,1.27,0.9190572376524004
3.1849999999999543,1.1,0.9206788917143255
3.189999999999954,1.1,0.920178638936899
3.194999999999954,0.77,0.9174975456156295
3.199999999999954,0.77,0.9126666637713181
3.204999999999954,1.08,0.9059741144572023
3.209999999999954,1.08,0.897866465670493
3.2149999999999537,0.85,0.8889117501679955
3.2199999999999536,0.85,0.8797023157719754
3.2249999999999535,0.84,0.8705466752410489
3.2299999999999534,0.84,0.8616175936216187
3.2349999999999532,0.82,0.8533911840936488
3.239999999999953,0.82,0.8465432099647664
3.244999999999953,0.66,0.8417884901041726
3.249999999999953,0.66,0.8397122066792803
3.254999999999953,0.58,0.8405886296022577
3.2599999999999527,0.58,0.8444241414222572
3.2649999999999526,0.52,0.8512896703517367
3.2699999999999525,0.52,0.861271675008028
3.2749999999999524,1.02,0.8742801960741827
3.2799999999999523,1.02,0.8901121778532884
3.284999999999952,0.56,0.9086737166925711
3.289999999999952,0.56,0.9299417579109726
3.294999999999952,1.14,0.9538081185380906
3.299999999999952,1.14,0.9801365038292554
3.3049999999999518,1.08,1.0086318035160542
3.3099999999999516,1.08,1.0388299514773056
3.3149999999999515,0.61,1.070430671758101
3.3199999999999514,0.61,1.1032277043296015
3.3249999999999513,1.37,1.1367548913715892
3.329999999999951,1.37,1.1704091137870807
3.334999999999951,1.3,1.2037204425373242
3.339999999999951,1.3,1.2363445907749235
3.344999999999951,1.12,1.2680072405044862
3.349999999999951,1.12,1.2985499802110092
3.3549999999999507,1.68,1.3278866291564533
3.3599999999999506,1.68,1.3560435760611058
3.3649999999999505,1.31,1.3831790087189808
3.3699999999999504,1.31,1.409430657576987
3.3749999999999503,1.77,1.434647206019522
3.37999999999995,1.77,1.4584762146716905
3.38499999999995,1.36,1.480850326547773
3.38999999999995,1.36,1.5019431722991006
3.39499999999995,1.47,1.5216884960143673
3.3999999999999497,1.47,1.5397287080487205
3.4049999999999496,1.91,1.5557487436792283
3.4099999999999495,1.91,1.5696903919636123
3.4149999999999494,1.14,1.5819127737604688
3.4199999999999493,1.14,1.5929615142764135
3.424999999999949,1.85,1.6030205176148729
3.429999999999949,1.85,1.6119326298730459
3.434999999999949,1.69,1.6197073647760536
3.439999999999949,1.69,1.6265920056196093
3.4449999999999488,1.59,1.6329726021553563
3.4499999999999487,1.59,1.6392255331550285
3.4549999999999486,1.85,1.6453513860780402
3.4599999999999485,1.85,1.6510211293890296
3.4649999999999483,1.4,1.6561199199577534
3.4699999999999482,1.4,1.6607624827209244
3.474999999999948,1.97,1.6648853489957947
3.479999999999948,1.97,1.668255255307061
3.484999999999948,1.49,1.6709019640717255
3.489999999999948,1.49,1.67315172124937
3.4949999999999477,1.53,1.6753217350656542
3.4999999999999476,1.53,1.6775826454489702
3.5049999999999475,2.09,1.6798910149027535
3.5099999999999474,2.09,1.6820852021099477
3.5149999999999473,1.22,1.6843073791404237
3.519999999999947,1.22,1.6869688985046003
3.524999999999947,1.88,1.6901379298545518
3.529999999999947,1.88,1.6935165020738367
3.534999999999947,1.83,1.696970535264102
3.5399999999999467,1.83,1.7005443837084504
3.5449999999999466,1.36,1.70420308116814
3.5499999999999465,1.36,1.7078439797063303
3.5549999999999464,1.92,1.7113605073192246
3.5599999999999463,1.92,1.7146418976498188
3.564999999999946,1.49,1.7177033865664115
3.569999999999946,1.49,1.720685171636581
3.574999999999946,1.95,1.723496862766192
3.579999999999946,1.95,1.725841433769837
3.584999999999946,1.75,1.727761373138384
3.5899999999999457,1.75,1.7296132441980674
3.5949999999999456,1.6,1.7314994571039868
3.5999999999999455,1.6,1.7332634703565402
3.6049999999999454,2.09,1.7347102442465303
3.6099999999999453,2.09,1.7356383182666495
3.614999999999945,1.28,1.7361506923464478
3.619999999999945,1.28,1.7366192476443085
3.624999999999945,1.99,1.7370652491577143
3.629999999999945,1.99,1.7371539182998474
3.6349999999999447,1.65,1.7367447024798957
3.6399999999999446,1.65,1.7358999990008688
3.6449999999999445,1.75,1.7346693308531627
3.6499999999999444,1.75,1.7332003099728122
3.6549999999999443,1.82,1.7317297126771518
3.659999999999944,1.82,1.7303604218458704
3.664999999999944,1.49,1.729033574133595
3.669999999999944,1.49,1.727698772915924
3.674999999999944,2.16,1.726263683136688
3.6799999999999438,2.16,1.7245664560720826
3.6849999999999437,1.33,1.7226883076550743
3.6899999999999435,1.33,1.7208567585286865
3.6949999999999434,1.75,1.7190710864702496
3.6999999999999433,1.75,1.7172412149606082
3.7049999999999432,2.01,1.7154040984559988
3.709999999999943,2.01,1.7135844233145552
3.714999999999943,1.28,1.7118200440046505
3.719999999999943,1.28,1.7103001553976487
3.724999999999943,2.03,1.709138046694384
3.7299999999999427,2.03,1.7082164363027308
3.7349999999999426,1.5,1.7074144123935198
3.7399999999999425,1.5,1.7067024115565261
3.7449999999999424,1.95,1.705955556183652
3.7499999999999423,1.95,1.7050100998333069
3.754999999999942,1.46,1.7039013235130023
3.759999999999942,1.46,1.7027410912036938
3.764999999999942,1.61,1.7015473579673153
3.769999999999942,1.61,1.7003426963795572
3.7749999999999417,2.13,1.6990682676646982
3.7799999999999416,2.13,1.6975518327041228
3.7849999999999415,1.23,1.6959570129316792
3.7899999999999414,1.23,1.6947798533950154
3.7949999999999413,1.96,1.6941935088635032
3.799999999999941,1.96,1.6940096896486245
3.804999999999941,1.64,1.694097068389783
3.809999999999941,1.64,1.6943824748089797
3.814999999999941,1.69,1.6948797422301523
3.8199999999999408,1.69,1.6957464047327162
3.8249999999999407,1.72,1.6968993452708185
3.8299999999999406,1.72,1.697977912796619
3.8349999999999405,1.46,1.69891613205006
3.8399999999999403,1.46,1.6999441606908534
3.8449999999999402,2.04,1.701035105357222
3.84999999999994,2.04,1.701928063299579
3.85499999999994,1.45,1.702617621984878
3.85999999999994,1.45,1.7033631247956065
3.86499999999994,1.66,1.7042509873554328
3.8699999999999397,1.66,1.7051481590257456
3.8749999999999396,2.15,1.705821944494787
3.8799999999999395,2.15,1.7060300911351056
3.8849999999999394,1.2,1.7059116298270318
3.8899999999999393,1.2,1.7059089540248504
3.894999999999939,2.0,1.7060883556135513
3.899999999999939,2.0,1.7061112235269194
3.904999999999939,1.66,1.705795302277161
3.909999999999939,1.66,1.7052047232724583
3.9149999999999388,1.56,1.7044240225622733
3.9199999999999386,1.56,1.7034644633155833
3.9249999999999385,2.05,1.7021967603165955
3.9299999999999384,2.05,1.7004834640070905
3.9349999999999383,1.44,1.6984056535264562
3.939999999999938,1.44,1.6961666510844409
3.944999999999938,1.94,1.6937324823469886
3.949999999999938,1.94,1.6908368095071111
3.954999999999938,1.46,1.6874500525330052
3.959999999999938,1.46,1.6838815381760992
3.9649999999999377,1.59,1.68044468009845
3.9699999999999376,1.59,1.6772585892375105
3.9749999999999375,2.08,1.6741527726800278
3.9799999999999374,2.08,1.6708071320989264
3.9849999999999373,1.23,1.667247789098996
3.989999999999937,1.23,1.6638345717096645
3.994999999999937,1.88,1.6606018014094608
3.999999999999937,1.88,1.6571723472752151
4.004999999999937,1.71,1.6532168035211614
4.009999999999937,1.71,1.648660866494387
4.014999999999937,1.4,1.6436593081331192
4.0199999999999365,1.4,1.6384129267142167
4.024999999999936,1.86,1.6328260168316913
4.029999999999936,1.86,1.626569703361578
4.034999999999936,1.44,1.6195930451718408
4.039999999999936,1.44,1.6121647390436027
4.044999999999936,1.78,1.604396037713834
4.049999999999936,1.78,1.5961973812039854
4.054999999999936,1.67,1.5877058100814763
4.059999999999936,1.67,1.579327370506606
4.0649999999999356,1.39,1.5713550808657648
4.0699999999999354,1.39,1.5638421928577466
4.074999999999935,1.95,1.5566215388384703
4.079999999999935,1.95,1.549429126613904
4.084999999999935,1.16,1.5423716568703494
4.089999999999935,1.16,1.5358737100688848
4.094999999999935,1.46,1.5300224086487473
4.099999999999935,1.46,1.524553078253788
4.104999999999935,1.71,1.519411695417345
4.109999999999935,1.71,1.5148322330190542
4.1149999999999345,1.13,1.5111899926796213
4.119999999999934,1.13,1.5088827810598393
4.124999999999934,1.69,1.5080269635859518
4.129999999999934,1.69,1.508484536528043
4.134999999999934,1.3,1.5102921049763824
4.139999999999934,1.3,1.5136690985874484
4.144999999999934,1.65,1.5186308941318194
4.149999999999934,1.65,1.5249441110584097
4.154999999999934,1.43,1.5324292758524403
4.1599999999999335,1.43,1.5409961853284107
4.164999999999933,1.33,1.550563867332077
4.169999999999933,1.33,1.5610447393916154
4.174999999999933,1.99,1.5721406457813623
4.179999999999933,1.99,1.5834105761443562
4.184999999999933,1.17,1.594754624547108
4.189999999999933,1.17,1.6064171721509881
4.194999999999933,1.78,1.6183994735774883
4.199999999999933,1.78,1.630399722635877
4.204999999999933,1.79,1.642057028216985
4.2099999999999325,1.79,1.6530396801577514
4.214999999999932,1.45,1.6632912743830806
4.219999999999932,1.45,1.672998029299573
4.224999999999932,1.91,1.6820561498444062
4.229999999999932,1.91,1.690045533584735
4.234999999999932,1.58,1.6967325576125023
4.239999999999932,1.58,1.7021345690676588
4.244999999999932,1.92,1.7061603125419094
4.249999999999932,1.92,1.7085970645224757
4.2549999999999315,1.77,1.7094054650284154
4.259999999999931,1.77,1.708796886776379
4.264999999999931,1.59,1.7071191933293322
4.269999999999931,1.59,1.7047281999804023
4.274999999999931,2.15,1.7018031821676207
4.279999999999931,2.15,1.6983255323118287
4.284999999999931,1.39,1.694473124746686
4.289999999999931,1.39,1.6906129912858319
4.294999999999931,1.73,1.6867553248710099
4.2999999999999305,1.73,1.6825690735126948
4.30499999999993,1.91,1.6778371036910407
4.30999999999993,1.91,1.6725469995448594
4.31499999999993,1.08,1.6669036656353706
4.31999999999993,1.08,1.6612061542519636
4.32499999999993,1.83,1.6554161532598104
4.32999999999993,1.83,1.6492290711758937
4.33499999999993,1.45,1.6425606567819984
4.33999999999993,1.45,1.6355593479077273
4.34499999999993,1.65,1.6282416880482555
4.3499999999999295,1.65,1.6204393852995387
4.354999999999929,1.68,1.6120181978699182
4.359999999999929,1.68,1.6029825053855327
4.364999999999929,1.58,1.5934476016500556
4.369999999999929,1.58,1.5835589220860586
4.374999999999929,2.31,1.5732356625544905
4.379999999999929,2.31,1.5621966924568296
4.384999999999929,1.23,1.5504397061638937
4.389999999999929,1.23,1.5382789164075956
4.3949999999999285,1.67,1.525792287053242
4.399999999999928,1.67,1.5127705652326229
4.404999999999928,1.78,1.4990225036097877
4.409999999999928,1.78,1.4844529350210947
4.414999999999928,1.1,1.4692525889078094
4.419999999999928,1.1,1.4538448782650861
4.424999999999928,1.62,1.4383750613307862
4.429999999999928,1.62,1.4227234275194578
4.434999999999928,1.27,1.4070387789508472
4.439999999999928,1.27,1.391803404082963
4.4449999999999275,1.32,1.377493838713608
4.449999999999927,1.32,1.3644092056056505
4.454999999999927,1.36,1.3526647115212862
4.459999999999927,1.36,1.3422667135806379
4.464999999999927,1.1,1.3333039152042545
4.469999999999927,1.1,1.3258778587877043
4.474999999999927,1.53,1.3198766971831453
4.479999999999927,1.53,1.3150955607621826
4.484999999999927,0.87,1.3116156110411121
4.4899999999999265,0.87,1.3097778636717914
4.494999999999926,1.31,1.3097653288106876
4.499999999999926,1.31,1.311425099582663
4.504999999999926,1.55,1.3143848633862625
4.509999999999926,1.55,1.3182628172042778
4.514999999999926,0.94,1.3230049961991555
4.519999999999926,0.94,1.3288349390827667
4.524999999999926,1.52,1.335668143382596
4.529999999999926,1.52,1.343071300221392
4.5349999999999255,1.33,1.3507058615186887
4.539999999999925,1.33,1.3584651160024073
4.544999999999925,1.22,1.3663642729000536
4.549999999999925,1.22,1.3743840061255113
4.554999999999925,1.6,1.3822814002586037
4.559999999999925,1.6,1.3897433435723054
4.564999999999925,1.22,1.3967095538576781
4.569999999999925,1.22,1.4033014814080538
4.574999999999925,1.65,1.4094594462137058
4.579999999999925,1.65,1.4149357239974718
4.5849999999999245,1.43,1.419607131583519
4.589999999999924,1.43,1.4236126991956066
4.594999999999924,1.31,1.4271505421045878
4.599999999999924,1.31,1.430263150110709
4.604999999999924,1.82,1.4327841265419068
4.609999999999924,1.82,1.434488289154571
4.614999999999924,1.09,1.4354583505096237
4.619999999999924,1.09,1.4360290553979047
4.624999999999924,1.51,1.4362920677560191
4.6299999999999235,1.51,1.436040266290086
4.634999999999923,1.65,1.4351081151410092
4.639999999999923,1.65,1.433538674982943
4.644999999999923,1.1,1.4316104061903026
4.649999999999923,1.1,1.429655023529647
4.654999999999923,1.71,1.4277218104825025
4.659999999999923,1.71,1.4256477385535073
4.664999999999923,1.27,1.423481312115436
4.669999999999923,1.27,1.4215043894750758
4.6749999999999226,1.38,1.4199289859993443
4.6799999999999224,1.38,1.418730836394818
4.684999999999922,1.54,1.417731416842956
4.689999999999922,1.54,1.4168079268827203
4.694999999999922,1.2,1.4160393097216037
4.699999999999922,1.2,1.4155813750899426
4.704999999999922,1.72,1.4153874486669544
4.709999999999922,1.72,1.4152295616422357
4.714999999999922,1.19,1.415076074964069
4.719999999999922,1.19,1.4151777728618231
4.7249999999999215,1.35,1.4157067717929137
4.729999999999921,1.35,1.4165785868449559
4.734999999999921,1.69,1.4175210559416505
4.739999999999921,1.69,1.4182608344813703
4.744999999999921,1.07,1.4188606945076785
4.749999999999921,1.07,1.4196318106522607
4.754999999999921,1.62,1.4205872056911162
4.759999999999921,1.62,1.421405524038489
4.764999999999921,1.5,1.421874357158717
4.7699999999999205,1.5,1.4220600716332124
4.77499999999992,1.18,1.4221819371346063
4.77999999999992,1.18,1.422399724111459
4.78499999999992,1.65,1.4226041063620154
4.78999999999992,1.65,1.4225605509703125
4.79499999999992,1.29,1.4222809870545523
4.79999999999992,1.29,1.4219842311628004
4.80499999999992,1.55,1.421737527967402
4.80999999999992,1.55,1.4213751147821938
4.81499999999992,1.42,1.4207594224259483
4.8199999999999195,1.42,1.419973763632095
4.824999999999919,1.22,1.4192495635452076
4.829999999999919,1.22,1.4187594761081108
4.834999999999919,1.78,1.4184383797543714
4.839999999999919,1.78,1.4180806733026798
4.844999999999919,1.11,1.417707497899184
4.849999999999919,1.11,1.417586980101067
4.854999999999919,1.42,1.417837906046582
4.859999999999919,1.42,1.4182955301406992
4.8649999999999185,1.65,1.418724891891757
4.869999999999918,1.65,1.4190146094079317
4.874999999999918,1.03,1.4193248927605053
4.879999999999918,1.03,1.4199500004312207
4.884999999999918,1.66,1.420874643025866
4.889999999999918,1.66,1.421803907694662
4.894999999999918,1.37,1.4226119996142708
4.899999999999918,1.37,1.4233973937940705
4.904999999999918,1.32,1.4242117564671177
4.9099999999999175,1.32,1.424943559245142
4.914999999999917,1.63,1.4253770809228168
4.919999999999917,1.63,1.4253770965254458
4.924999999999917,1.24,1.4250705307108869
4.929999999999917,1.24,1.4247139787822014
4.934999999999917,1.63,1.4243476427415507
4.939999999999917,1.63,1.4237724161254552
4.944999999999917,1.37,1.4229132637632167
4.949999999999917,1.37,1.4219586759173686
4.954999999999917,1.32,1.4210964658418654
4.9599999999999165,1.32,1.4203439610439392
4.964999999999916,1.74,1.4195616632454804
4.969999999999916,1.74,1.4185716126802745
4.974999999999916,1.03,1.4174577316037047
4.979999999999916,1.03,1.4165167312996811
4.984999999999916,1.57,1.4157519496057416
4.989999999999916,1.57,1.4148601972933255
4.994999999999916,1.43,1.4137056989117895
4.999999999999916,1.43,1.412425026694071
5.0049999999999155,1.14,1.4112869978683267
5.009999999999915,1.14,1.410556665744666
5.014999999999915,1.68,1.4103251477302323
5.019999999999915,1.68,1.4105119887020245
5.024999999999915,1.29,1.4110715674092393
5.029999999999915,1.29,1.4120324134904942
5.034999999999915,1.43,1.4132089610035385
5.039999999999915,1.43,1.4142487704274842
5.044999999999915,1.46,1.4150971219726833
5.049999999999915,1.46,1.4159910585423785
5.0549999999999145,1.29,1.4171444594310467
5.059999999999914,1.29,1.4186705775492616
5.064999999999914,1.68,1.4205612817383384
5.069999999999914,1.68,1.422641472170199
5.074999999999914,1.07,1.424672903032642
5.079999999999914,1.07,1.426564766980208
5.084999999999914,1.54,1.4282737985979903
5.089999999999914,1.54,1.429697305513399
5.094999999999914,1.6,1.430955977888264
5.0999999999999135,1.6,1.4324648156834192
5.104999999999913,1.35,1.4348387674811596
5.109999999999913,1.35,1.4387325985925552
5.114999999999913,1.46,1.4444523968439376
5.119999999999913,1.46,1.4518860052722142
5.124999999999913,1.1,1.4605365813132267
5.129999999999913,1.1,1.469670480467251
5.134999999999913,1.73,1.4787392601994285
5.139999999999913,1.73,1.4873603943515117
5.1449999999999125,1.47,1.494988289520987
5.149999999999912,1.47,1.5012752732454575
5.154999999999912,1.5,1.50680552484677
5.159999999999912,1.5,1.5125837226763426
5.164999999999912,0.7,1.5191547157513532
5.169999999999912,0.7,1.5267186691348855
5.174999999999912,3.59,1.5358171872742223
5.179999999999912,3.59,1.5470822511714497
5.184999999999912,2.42,1.5602203603021052
5.189999999999912,2.42,1.5742996540832634
5.1949999999999115,1.75,1.5886248644879246
5.199999999999911,1.75,1.6027839203242158
5.204999999999911,3.42,1.6165956417058507
5.209999999999911,3.42,1.630023251329924
5.214999999999911,1.17,1.642909193015312
5.219999999999911,1.17,1.6550025608609775
5.224999999999911,1.72,1.6662294739205705
5.229999999999911,1.72,1.6768332213790156
5.234999999999911,0.89,1.6869282320049772
5.2399999999999105,0.89,1.69602280183524
5.24499999999991,2.18,1.7035221189139018
5.24999999999991,2.18,1.7091751084029814
5.25499999999991,0.57,1.7126702554348054
5.25999999999991,0.57,1.7137331876707398
5.26499999999991,2.17,1.7125477314507809
5.26999999999991,2.17,1.7097723876804776
5.27499999999991,1.09,1.7059709292191019
5.27999999999991,1.09,1.7012942377226277
5.2849999999999095,2.77,1.6955709725823631
5.289999999999909,2.77,1.6882440760854662
5.294999999999909,1.94,1.6786093433729945
5.299999999999909,1.94,1.6662416036266388
5.304999999999909,1.78,1.6507016670386638
5.309999999999909,1.78,1.6310275623658548
5.314999999999909,0.57,1.6065795551842177
5.319999999999909,0.57,1.5780933482346842
5.324999999999909,1.91,1.5470862420427067
5.329999999999909,1.91,1.5152794538404344
5.3349999999999085,1.55,1.4841714435046192
5.339999999999908,1.55,1.4546587906172443
5.344999999999908,1.21,1.426944075275712
5.349999999999908,1.21,1.4008290365849936
5.354999999999908,1.36,1.3770977844509906
5.359999999999908,1.36,1.3576110525915774
5.364999999999908,0.99,1.3438483030862491
5.369999999999908,0.99,1.336702439107545
5.374999999999908,1.03,1.337255058986876
5.3799999999999075,1.03,1.3455243572837992
5.384999999999907,0.92,1.3594686580600521
5.389999999999907,0.92,1.376652360941209
5.394999999999907,2.73,1.395528119989166
5.399999999999907,2.73,1.4154760494062173
5.404999999999907,1.77,1.4359946164438426
5.409999999999907,1.77,1.4565568409233938
5.414999999999907,2.63,1.4770608679383241
5.419999999999907,2.63,1.497321016027705
5.424999999999907,0.61,1.515433714774484
5.4299999999999065,0.61,1.5288203108084546
5.434999999999906,3.26,1.5372347983148547
5.439999999999906,3.26,1.542484727831116
5.444999999999906,1.98,1.5472510591862279
5.449999999999906,1.98,1.5543360502017494
5.454999999999906,0.24,1.56519653953648
5.459999999999906,0.24,1.5791291685254447
5.464999999999906,1.68,1.5942377383879387
5.469999999999906,1.68,1.608542644737803
5.4749999999999055,0.22,1.620162423907541
5.479999999999905,0.22,1.627858928252567
5.484999999999905,3.16,1.6311915534138284
5.489999999999905,3.16,1.6305708656892224
5.494999999999905,0.71,1.6265191931378882
5.499999999999905,0.71,1.618931269263278
5.504999999999905,2.83,1.60791655148228
5.509999999999905,2.83,1.5937852371322543
5.514999999999905,1.34,1.5768127658439393
5.5199999999999045,1.34,1.5573858885304102
5.524999999999904,0.08,1.5363903362254783
5.529999999999904,0.08,1.5154785059540468
5.534999999999904,2.04,1.496151861229697
5.539999999999904,2.04,1.4787597234701129
5.544999999999904,2.43,1.4625020433710774
5.549999999999904,2.43,1.446139337517062
5.554999999999904,1.73,1.4287482455809488
5.559999999999904,1.73,1.4096076951782366
5.564999999999904,1.46,1.388201711889444
5.5699999999999035,1.46,1.3644283978596226
5.574999999999903,0.66,1.3381706624655931
5.579999999999903,0.66,1.3091608360285651
5.584999999999903,0.88,1.2773287824666528
5.589999999999903,0.88,1.2428763196816082
5.594999999999903,1.71,1.2064766083577927
5.599999999999903,1.71,1.1692217805133833
5.604999999999903,0.81,1.1319055832429121
5.609999999999903,0.81,1.0950693501215876
5.6149999999999025,0.81,1.0598603429489137
5.619999999999902,0.81,1.027838349027727
5.624999999999902,1.33,1.0001975918066872
5.629999999999902,1.33,0.9775850902663925
5.634999999999902,1.8,0.9602473334900805
5.639999999999902,1.8,0.9478572748667994
5.644999999999902,0.46,0.9394738399753695
5.649999999999902,0.46,0.9340355657359084
5.654999999999902,0.5,0.9307898153744918
5.6599999999999016,0.5,0.9290155627713638
5.6649999999999014,0.97,0.9279021950063853
5.669999999999901,0.97,0.9267753688119614
5.674999999999901,2.77,0.9253207662656426
5.679999999999901,2.77,0.9238740195479005
5.684999999999901,0.82,0.9229217574845743
5.689999999999901,0.82,0.922722072696539
5.694999999999901,0.23,0.9231672061586421
5.699999999999901,0.23,0.9238064824710331
5.704999999999901,1.44,0.92459566293919
5.7099999999999005,1.44,0.9260128327178937
5.7149999999999,0.95,0.9281561506660543
5.7199999999999,0.95,0.9305737048922096
5.7249999999999,1.27,0.9323592550562361
5.7299999999999,1.27,0.9322451897467154
5.7349999999999,0.75,0.9290590159826134
5.7399999999999,0.75,0.9219000789529274
5.7449999999999,1.28,0.9103145491484662
5.7499999999999,1.28,0.8945294303525244
5.7549999999998995,0.89,0.8749796813905932
5.759999999999899,0.89,0.8521661032214195
5.764999999999899,2.16,0.8267906520706552
5.769999999999899,2.16,0.7996068875737239
5.774999999999899,0.8,0.7712262024971028
5.779999999999899,0.8,0.7419921046712935
5.784999999999899,0.77,0.7125747969302969
5.789999999999899,0.77,0.6841728932368071
5.794999999999899,1.03,0.6579642442068034
5.799999999999899,1.03,0.6347338989656067
5.8049999999998985,0.25,0.6145044970640944
5.809999999999898,0.25,0.5966349309276145
5.814999999999898,0.13,0.5806028229111395
5.819999999999898,0.13,0.5663457486011056
5.824999999999898,0.44,0.5539264539167662
5.829999999999898,0.44,0.5432902383889502
5.834999999999898,0.32,0.5343106561237628
5.839999999999898,0.32,0.5268285836386745
5.844999999999898,0.09,0.5205749657724277
5.8499999999998975,0.09,0.5153198352724174
5.854999999999897,0.52,0.5112952445365271
5.859999999999897,0.52,0.5091924409489874
5.864999999999897,1.52,0.5098842470135598
5.869999999999897,1.52,0.5142896495407058
5.874999999999897,1.04,0.5232405799861247
5.879999999999897,1.04,0.537141361086612
5.884999999999897,0.62,0.5557240978190708
5.889999999999897,0.62,0.5779751564754121
5.8949999999998965,0.23,0.6020348048244522
5.899999999999896,0.23,0.6258819844366323
5.904999999999896,1.72,0.64826037350123
5.909999999999896,1.72,0.6686366725848202
5.914999999999896,0.42,0.6864021315588567
5.919999999999896,0.42,0.7008714665284478
5.924999999999896,0.36,0.7114559620351251
5.929999999999896,0.36,0.7178661153450975
5.934999999999896,2.02,0.7207015039406413
5.939999999999896,2.02,0.7212819271442162
5.9449999999998955,1.76,0.7210983975535427
5.949999999999895,1.76,0.7216376580496855
5.954999999999895,0.79,0.7242654309938973
5.959999999999895,0.79,0.7298368043035934
5.964999999999895,1.37,0.7383644910910941
5.969999999999895,1.37,0.7490384946399766
5.974999999999895,0.98,0.7603328570626964
5.979999999999895,0.98,0.7702783378098111
5.984999999999895,0.36,0.7772199123568087
5.9899999999998945,0.36,0.7801435589139493
5.994999999999894,2.29,0.7785374161174716
5.999999999999894,2.29,0.7725629052498924
6.004999999999894,0.41,0.7633142746183241
6.009999999999894,0.41,0.7523454531680273
6.014999999999894,0.52,0.7410919072132297
6.019999999999894,0.52,0.7306690997411068
6.024999999999894,1.13,0.721581828667811
6.029999999999894,1.13,0.7140640109528291
6.034999999999894,2.04,0.708198287908115
6.0399999999998935,2.04,0.7038464455499487
6.044999999999893,1.66,0.70100728287035
6.049999999999893,1.66,0.6999667105577863
6.054999999999893,0.36,0.7013997917325843
6.059999999999893,0.36,0.7059570968868824
6.064999999999893,0.31,0.7138937933674875
6.069999999999893,0.31,0.7249616897485129
6.074999999999893,2.52,0.7387519148280423
6.079999999999893,2.52,0.7545842282766534
6.0849999999998925,0.48,0.7710532609389807
6.089999999999892,0.48,0.7867913369660922
6.094999999999892,1.36,0.800946032657548
6.099999999999892,1.36,0.8135030491220311
6.104999999999892,0.56,0.8253549302611018
6.109999999999892,0.56,0.8378022735824552
6.114999999999892,2.3,0.852256804132409
6.119999999999892,2.3,0.8695871042678756
6.124999999999892,0.62,0.8895287171033928
6.1299999999998915,0.62,0.9109356306509871
6.134999999999891,2.19,0.9329592256212614
6.139999999999891,2.19,0.9554185052788421
6.144999999999891,1.82,0.9781826700181903
6.149999999999891,1.82,1.0008321837479035
6.154999999999891,1.16,1.0228739521364278
6.159999999999891,1.16,1.0442362225017905
6.164999999999891,1.27,1.0652105906380074
6.169999999999891,1.27,1.086194953735241
6.174999999999891,0.56,1.1074144979108105
6.1799999999998905,0.56,1.1288020380961274
6.18499999999989,0.78,1.150332140231189
6.18999999999989,0.78,1.1720681554956907
6.19499999999989,1.17,1.1937867148728156
6.19999999999989,1.17,1.2149079621692267
6.20499999999989,1.93,1.234927579075777
6.20999999999989,1.93,1.2533420285014605
6.21499999999989,0.57,1.268788282392308
6.21999999999989,0.57,1.279251393611362
6.2249999999998895,1.36,1.2835138539118252
6.229999999999889,1.36,1.2816052751744371
6.234999999999889,1.73,1.273980165541144
6.239999999999889,1.73,1.2613710457326395
6.244999999999889,1.04,1.2447034271911654
6.249999999999889,1.04,1.2249181358772314
6.254999999999889,1.96,1.2031491067974462
6.259999999999889,1.96,1.1803924037456877
6.264999999999889,1.58,1.1568332260526124
6.2699999999998886,1.58,1.1321726214125003
6.2749999999998884,2.21,1.106407884464139
6.279999999999888,2.21,1.0796854362215638
6.284999999999888,2.55,1.051867015619723
6.289999999999888,2.55,1.0228856714353949
6.294999999999888,0.28,0.9929068663231502
6.299999999999888,0.28,0.9620133923655638
6.304999999999888,0.57,0.9299020430580975
6.309999999999888,0.57,0.8957748536842393
6.314999999999888,1.32,0.8593259054227971
6.3199999999998875,1.32,0.8215049333977325
6.324999999999887,0.4,0.7840687119249379
6.329999999999887,0.4,0.7490521496964598
6.334999999999887,0.38,0.7187429151796628
6.339999999999887,0.38,0.6954159367124545
6.344999999999887,0.81,0.6810675546143473
6.349999999999887,0.81,0.6768239120869531
6.354999999999887,0.36,0.6821538281917889
6.359999999999887,0.36,0.6951255821666514
6.3649999999998865,1.05,0.7130130374610976
6.369999999999886,1.05,0.7328543210192069
6.374999999999886,0.35,0.7521414617473351
6.379999999999886,0.35,0.7693491696354148
6.384999999999886,0.61,0.7840352086918286
6.389999999999886,0.61,0.796581742790159
6.394999999999886,0.42,0.8078576764803148
6.399999999999886,0.42,0.8187476076725062
6.404999999999886,1.69,0.8296094071263591
6.409999999999886,1.69,0.840281306483846
6.4149999999998855,1.25,0.8501288420792018
6.419999999999885,1.25,0.858275122221109
6.424999999999885,1.08,0.8642969889248893
6.429999999999885,1.08,0.8684877439803843
6.434999999999885,1.69,0.8715845656411362
6.439999999999885,1.69,0.8742406743641643
6.444999999999885,1.06,0.876454855835537
6.449999999999885,1.06,0.8776482304692881
6.454999999999885,0.63,0.8771192470180884
6.4599999999998845,0.63,0.8742810499526217
6.464999999999884,0.4,0.868541007982821
6.469999999999884,0.4,0.8591819572689497
6.474999999999884,1.13,0.8458221250316009
6.479999999999884,1.13,0.828854922889389
6.484999999999884,1.91,0.8092734008062972
6.489999999999884,1.91,0.7883388474502954
6.494999999999884,0.65,0.7673086271513054
6.499999999999884,0.65,0.7472362588011443
6.5049999999998835,0.43,0.7286455901308875
6.509999999999883,0.43,0.7114644821307952
6.514999999999883,0.77,0.6955088533062388
6.519999999999883,0.77,0.680654386190388
6.524999999999883,1.1,0.6670142899090491
6.529999999999883,1.1,0.6548080840501674
6.534999999999883,0.48,0.6439843592326926
6.539999999999883,0.48,0.634244219688049
6.544999999999883,0.51,0.6253619233909173
6.549999999999883,0.51,0.6173818563838303
6.5549999999998825,0.65,0.6107560481549826
6.559999999999882,0.65,0.6062465356081643
6.564999999999882,0.35,0.60458096709777
6.569999999999882,0.35,0.6062674413946987
6.574999999999882,0.88,0.6114764265886037
6.579999999999882,0.88,0.6198992001799997
6.584999999999882,0.56,0.6307735498061658
6.589999999999882,0.56,0.6433858451448814
6.594999999999882,0.15,0.6574978855347299
6.5999999999998815,0.15,0.6731777816860793
6.604999999999881,0.18,0.6905689772065001
6.609999999999881,0.18,0.7097978981169929
6.614999999999881,1.35,0.7307746989335966
6.619999999999881,1.35,0.7530446477849015
6.624999999999881,0.54,0.7757377456395345
6.629999999999881,0.54,0.797942532626369
6.634999999999881,0.67,0.8194126642891716
6.639999999999881,0.67,0.8404041122704146
6.644999999999881,1.01,0.8609456294304214
6.6499999999998805,1.01,0.8807705212543456
6.65499999999988,1.2,0.8993857682979473
6.65999999999988,1.2,0.9162978893554341
6.66499999999988,1.4,0.9314735733622886
6.66999999999988,1.4,0.9450331601441808
6.67499999999988,0.65,0.95646632858737
6.67999999999988,0.65,0.9647894005420572
6.68499999999988,1.62,0.9692035586798914
6.68999999999988,1.62,0.9694407271652837
6.6949999999998795,1.1,0.9657682047390836
6.699999999999879,1.1,0.9587655187507201
6.704999999999879,1.06,0.9488762737610607
6.709999999999879,1.06,0.9363839048901842
6.714999999999879,0.43,0.9216067005661064
6.719999999999879,0.43,0.9046181870868288
6.724999999999879,1.85,0.8855145750464339
6.729999999999879,1.85,0.8648805439073228
6.734999999999879,0.81,0.8436259427897966
6.7399999999998785,0.81,0.8226313261546727
6.744999999999878,0.78,0.8023727315997733
6.749999999999878,0.78,0.7829808974279157
6.754999999999878,1.54,0.7646209775560985
6.759999999999878,1.54,0.7474295933256591
6.764999999999878,0.48,0.7315453656212441
6.769999999999878,0.48,0.7170703883946772
6.774999999999878,0.38,0.7041714096011252
6.779999999999878,0.38,0.6933068778908135
6.784999999999878,0.72,0.6847535328538297
6.7899999999998775,0.72,0.6782630396466756
6.794999999999877,0.18,0.673299444130483
6.799999999999877,0.18,0.6692420129726798
6.804999999999877,0.9,0.665682640802915
6.809999999999877,0.9,0.6625739535938702
6.814999999999877,0.53,0.6602781974979102
6.819999999999877,0.53,0.6593822483641676
6.824999999999877,0.92,0.6600146896736168
6.829999999999877,0.92,0.6618664860915175
6.8349999999998765,0.27,0.664522659260308
6.839999999999876,0.27,0.6674945474236269
6.844999999999876,0.76,0.6702338556571594
6.849999999999876,0.76,0.6722547012774004
6.854999999999876,1.18,0.6732257237569913
6.859999999999876,1.18,0.6729379075013485
6.864999999999876,1.88,0.6714873077612643
6.869999999999876,1.88,0.6692561574705843
6.874999999999876,0.57,0.6665007294587532
6.8799999999998755,0.57,0.6633304492875826
6.884999999999875,0.41,0.6597391955526789
6.889999999999875,0.41,0.6556017888509522
6.894999999999875,0.84,0.6509368782280616
6.899999999999875,0.84,0.6460807869546589
6.904999999999875,1.09,0.6415721414594314
6.909999999999875,1.09,0.6379049869886537
6.914999999999875,0.35,0.6356224535543801
6.919999999999875,0.35,0.635290701107824
6.924999999999875,0.56,0.6371242009936618
6.9299999999998745,0.56,0.6411047962421429
6.934999999999874,0.11,0.647603918446927
6.939999999999874,0.11,0.6571242619791409
6.944999999999874,0.62,0.6694468580468489
6.949999999999874,0.62,0.6835524984190688
6.954999999999874,0.9,0.697991091996173
6.959999999999874,0.9,0.7114388021446328
6.964999999999874,0.48,0.7232754062415511
6.969999999999874,0.48,0.7334974958779957
6.9749999999998735,1.97,0.7421870263954659
6.979999999999873,1.97,0.7495316199624892
6.984999999999873,2.29,0.7559565970462822
6.989999999999873,2.29,0.7620773857799038
6.994999999999873,1.26,0.7683830054085781
6.999999999999873,1.26,0.7750154162558873
7.004999999999873,0.7,0.7820436034221699
7.009999999999873,0.7,0.789175030829968
7.014999999999873,2.86,0.7957080470333954
7.019999999999873,2.86,0.8011521610689106
7.0249999999998725,1.32,0.8052513572178621
7.029999999999872,1.32,0.8078065028193848
7.034999999999872,0.77,0.8087946162081412
7.039999999999872,0.77,0.808460390949897
7.044999999999872,0.66,0.8072031754499251
7.049999999999872,0.66,0.8055737654895567
7.054999999999872,0.95,0.8043482136435897
7.059999999999872,0.95,0.8042685494504045
7.064999999999872,0.38,0.8060247198497927
7.0699999999998715,0.38,0.8102497892110744
7.074999999999871,0.59,0.8173445680059599
7.079999999999871,0.59,0.8274261622074962
7.084999999999871,0.21,0.8401681348795442
7.089999999999871,0.21,0.8548853168477114
7.094999999999871,1.28,0.8707890100235853
7.099999999999871,1.28,0.8869307963417469
7.104999999999871,0.22,0.9023291384283568
7.109999999999871,0.22,0.9162935193941119
7.1149999999998705,1.13,0.928536141856356
7.11999999999987,1.13,0.9392437086723037
7.12499999999987,1.32,0.9487362297970471
7.12999999999987,1.32,0.9570422407354163
7.13499999999987,0.61,0.9639502562535295
7.13999999999987,0.61,0.9692053590279495
7.14499999999987,1.46,0.9727137606997703
7.14999999999987,1.46,0.9742617324702444
7.15499999999987,1.68,0.9730972993191055
7.15999999999987,1.68,0.9682700666695164
7.1649999999998695,1.46,0.9594240633443215
7.169999999999869,1.46,0.9470119437648814
7.174999999999869,0.68,0.9318540218057451
7.179999999999869,0.68,0.914909192784624
7.184999999999869,1.07,0.8972114154622298
7.189999999999869,1.07,0.8796073309124284
7.194999999999869,0.76,0.8626045308390934
7.199999999999869,0.76,0.846239123832706
7.204999999999869,0.43,0.8303536071096622
7.2099999999998685,0.43,0.8151484173314274
7.214999999999868,0.75,0.8012728610625337
7.219999999999868,0.75,0.7894366924540345
7.224999999999868,0.16,0.780165228654887
7.229999999999868,0.16,0.7736206032093467
7.234999999999868,1.65,0.7694921146608447
7.239999999999868,1.65,0.7672166972988722
7.244999999999868,0.21,0.765970297997762
7.249999999999868,0.21,0.7647607550089578
7.2549999999998676,0.84,0.7628611306070624
7.2599999999998674,0.84,0.7599969172379105
7.264999999999867,0.65,0.7561376870154127
7.269999999999867,0.65,0.7513247686747121
7.274999999999867,0.83,0.7457130885026291
7.279999999999867,0.83,0.7395737112352667
7.284999999999867,1.18,0.7328174193902907
7.289999999999867,1.18,0.724811354454028
7.294999999999867,1.69,0.7147502354792173
7.299999999999867,1.69,0.702126869309078
7.3049999999998665,1.16,0.6870423330796493
7.309999999999866,1.16,0.6701270231610775
7.314999999999866,0.79,0.6521678424067492
7.319999999999866,0.79,0.6338919178015172
7.324999999999866,0.3,0.6158935236936872
7.329999999999866,0.3,0.5985211765680395
7.334999999999866,0.6,0.5817808074211591
7.339999999999866,0.6,0.5652770630281025
7.344999999999866,0.34,0.5488309923616959
7.3499999999998655,0.34,0.5329239141086145
7.354999999999865,0.28,0.5181919757392675
7.359999999999865,0.28,0.5051303232391924
7.364999999999865,0.28,0.49410183915108896
7.369999999999865,0.28,0.48526045375581817
7.374999999999865,0.22,0.4784362624325283
7.379999999999865,0.22,0.47315698448576027
7.384999999999865,0.06,0.468946487492684
7.389999999999865,0.06,0.4655108515516289
7.394999999999865,0.82,0.46289219920451913
7.3999999999998645,0.82,0.46149041567326565
7.404999999999864,0.62,0.4617617643549715
7.409999999999864,0.62,0.46390466383758167
7.414999999999864,0.51,0.46791058387916135
7.419999999999864,0.51,0.4736742004185257
7.424999999999864,0.84,0.4810913945946816
7.429999999999864,0.84,0.4901025358208922
7.434999999999864,1.16,0.500396362310623
7.439999999999864,1.16,0.5113126000524217
7.4449999999998635,0.18,0.5220175894772932
7.449999999999863,0.18,0.531764567616405
7.454999999999863,0.11,0.5400815196171708
7.459999999999863,0.11,0.5467300075052668
7.464999999999863,0.42,0.5515655912233481
7.469999999999863,0.42,0.5545921311956218
7.474999999999863,0.52,0.5560178192198174
7.479999999999863,0.52,0.5562756898041704
7.484999999999863,0.48,0.5559592815179333
7.4899999999998625,0.48,0.5557308480798042
7.494999999999862,0.72,0.5560857029653721
7.499999999999862,0.72,0.557143905618588
7.504999999999862,0.64,0.5589027233735664
7.509999999999862,0.64,0.5613427299581896
7.514999999999862,0.72,0.5643729482914561
7.519999999999862,0.72,0.5678224545397772
7.524999999999862,0.66,0.5713828154973023
7.529999999999862,0.66,0.5745857684018759
7.534999999999862,0.5,0.5769658355681048
7.5399999999998615,0.5,0.5780949905505122
7.544999999999861,0.82,0.5776626292420207
7.549999999999861,0.82,0.57566247773869
7.554999999999861,0.49,0.5721422040841451
7.559999999999861,0.49,0.5671192306505674
7.564999999999861,0.51,0.560544363969177
7.569999999999861,0.51,0.5523251472844509
7.574999999999861,0.48,0.5424230396571539
7.579999999999861,0.48,0.5308743661687466
7.5849999999998605,0.51,0.5178134064841678
7.58999999999986,0.51,0.5034508668370652
7.59499999999986,0.49,0.48797903828607064
7.59999999999986,0.49,0.4715344944944412
7.60499999999986,0.48,0.4543406343255403
7.60999999999986,0.48,0.4367057855079685
7.61499999999986,0.53,0.41892417908441576
7.61999999999986,0.53,0.40124108186652024
7.62499999999986,0.6,0.38390946267440296
7.62999999999986,0.6,0.36716465063597026
7.6349999999998595,0.35,0.3511177362377344
7.639999999999859,0.35,0.3357950629003391
7.644999999999859,0.31,0.3211794030903648
7.649999999999859,0.31,0.3071675742850705
7.654999999999859,0.13,0.2937481740470981
7.659999999999859,0.13,0.28104670151218947
7.664999999999859,0.14,0.269117453918345
7.669999999999859,0.14,0.2579687656364814
7.674999999999859,0.11,0.2477020429837619
7.6799999999998585,0.11,0.2384984177922957
7.684999999999858,0.07,0.2305500858261935
7.689999999999858,0.07,0.22402748669861705
7.694999999999858,0.2,0.21906596237407167
7.699999999999858,0.2,0.21579738268536766
7.704999999999858,0.17,0.21440474246489377
7.709999999999858,0.17,0.21504639928844693
7.714999999999858,0.26,0.21773538569977635
7.719999999999858,0.26,0.22233381062306407
7.7249999999998575,0.1,0.22862130532792527
7.729999999999857,0.1,0.23631138766200774
7.734999999999857,0.33,0.24511750753273545
7.739999999999857,0.33,0.25480146581200314
7.744999999999857,0.4,0.2650818874343801
7.749999999999857,0.4,0.2756761516125354
7.754999999999857,0.16,0.28641385952246357
7.759999999999857,0.16,0.2972177911557534
7.764999999999857,0.37,0.30793778088961243
7.769999999999857,0.37,0.31837531777176376
7.7749999999998565,0.32,0.3283514668246837
7.779999999999856,0.32,0.33776089860762004
7.784999999999856,0.26,0.34664538449904514
7.789999999999856,0.26,0.35511538329568304
7.794999999999856,0.48,0.36316899739072594
7.799999999999856,0.48,0.37071145741265055
7.804999999999856,0.34,0.3776954633698389
7.809999999999856,0.34,0.38413547117702407
7.814999999999856,0.46,0.39007958659762443
7.8199999999998555,0.46,0.3955849393454272
7.824999999999855,0.43,0.4007304488846923
7.829999999999855,0.43,0.40564053807668343
7.834999999999855,0.39,0.41043139335039536
7.839999999999855,0.39,0.41510585403788075
7.844999999999855,0.59,0.4195496213603935
7.849999999999855,0.59,0.42362289836094513
7.854999999999855,0.32,0.4273309707512243
7.859999999999855,0.32,0.4308073556317495
7.8649999999998546,0.39,0.4341043187538906
7.8699999999998544,0.39,0.43716069157748483
7.874999999999854,0.58,0.43993945734524875
7.879999999999854,0.58,0.4424921782546369
7.884999999999854,0.29,0.44498092316897286
7.889999999999854,0.29,0.44759398346033547
7.894999999999854,0.47,0.450388281783437
7.899999999999854,0.47,0.4533138428359513
7.904999999999854,0.46,0.45643838090047184
7.909999999999854,0.46,0.45993007608493625
7.9149999999998535,0.42,0.4638597754237
7.919999999999853,0.42,0.46820824148244955
7.924999999999853,0.55,0.4730546084577456
7.929999999999853,0.55,0.47853465343358204
7.934999999999853,0.37,0.48468278097077744
7.939999999999853,0.37,0.4914236751330191
7.944999999999853,0.62,0.4985813776439095
7.949999999999853,0.62,0.5059263029935017
7.954999999999853,0.42,0.5133662175860203
7.9599999999998525,0.42,0.5209472427222893
7.964999999999852,0.48,0.5286213415507279
7.969999999999852,0.48,0.5362451057980214
7.974999999999852,0.66,0.5437035419977453
7.979999999999852,0.66,0.550883431102961
7.984999999999852,0.42,0.5576844764350054
7.989999999999852,0.42,0.5641111894292674
7.994999999999852,0.7,0.5702491241357865
7.999999999999852,0.7,0.5761812051410885
8.004999999999852,0.5,0.5819989066912753
8.009999999999852,0.5,0.587776983511971
8.014999999999853,0.79,0.5935142728086272
8.019999999999854,0.79,0.5991815200299184
8.024999999999855,0.58,0.6047741920013118
8.029999999999855,0.58,0.6102416825181127
8.034999999999856,0.56,0.6154442249373003
8.039999999999857,0.56,0.6202519165798871
8.044999999999858,0.76,0.6245784206889666
8.049999999999859,0.76,0.6283420974178019
8.05499999999986,0.49,0.6315807713312908
8.05999999999986,0.49,0.6344455490186726
8.064999999999861,0.7,0.6370143807052242
8.069999999999862,0.7,0.6393047222764217
8.074999999999863,0.54,0.6413969025741287
8.079999999999863,0.54,0.6433746194361906
8.084999999999864,0.71,0.6453108366884664
8.089999999999865,0.71,0.6473291313626663
8.094999999999866,0.74,0.649517574091035
8.099999999999866,0.74,0.6518613684418696
8.104999999999867,0.56,0.6543599914395529
8.109999999999868,0.56,0.6570509674855374
8.114999999999869,0.79,0.6598671970156276
8.11999999999987,0.79,0.6626415725462442
8.12499999999987,0.48,0.6653649609025367
8.129999999999871,0.48,0.6681549293093768
8.134999999999872,0.7,0.6709811568317584
8.139999999999873,0.7,0.6737133537932857
8.144999999999873,0.79,0.6762469989509824
8.149999999999874,0.79,0.6784991048089449
8.154999999999875,0.54,0.6805154434970265
8.159999999999876,0.54,0.6824574808726692
8.164999999999877,0.84,0.6843631188452677
8.169999999999877,0.84,0.6861551587421838
8.174999999999878,0.6,0.6878567361986644
8.179999999999879,0.6,0.6895846480400992
8.18499999999988,0.71,0.6913811100898999
8.18999999999988,0.71,0.6931868516513888
8.194999999999881,0.72,0.6949686260061005
8.199999999999882,0.72,0.6967117841241334
8.204999999999883,0.62,0.6983697182230248
8.209999999999884,0.62,0.6998978764664304
8.214999999999884,0.95,0.7011857301575269
8.219999999999885,0.95,0.7020864636742821
8.224999999999886,0.46,0.7026401007510628
8.229999999999887,0.46,0.7030491328345351
8.234999999999888,0.75,0.7033905316744227
8.239999999999888,0.75,0.7035826924125983
8.244999999999889,0.82,0.7035359833515137
8.24999999999989,0.82,0.7031925950656748
8.25499999999989,0.54,0.702600749332087
8.259999999999891,0.54,0.7018982894182124
8.264999999999892,0.81,0.7011083513330747
8.269999999999893,0.81,0.7001241152085553
8.274999999999894,0.66,0.6989384782874535
8.279999999999895,0.66,0.6976822553906211
8.284999999999895,0.81,0.6964524698823465
8.289999999999896,0.81,0.6952671404885654
8.294999999999897,0.64,0.6941206229409088
8.299999999999898,0.64,0.6930015792349918
8.304999999999898,0.59,0.6919196426494812
8.3099999999999,0.59,0.6908888374976839
8.3149999999999,0.87,0.6898169268982693
8.3199999999999,0.87,0.6885389198478591
8.324999999999902,0.53,0.6871217535083053
8.329999999999902,0.53,0.685854860880222
8.334999999999903,0.69,0.6848367821465382
8.339999999999904,0.69,0.6839383304368106
8.344999999999905,0.76,0.6830518134628706
8.349999999999905,0.76,0.6821415736375696
8.354999999999906,0.57,0.6812876659483846
8.359999999999907,0.57,0.6806603446789496
8.364999999999908,0.76,0.6802823565632159
8.369999999999909,0.76,0.6800203904174841
8.37499999999991,0.64,0.6798229028920407
8.37999999999991,0.64,0.6797289704702761
8.384999999999911,0.69,0.6797108090353632
8.389999999999912,0.69,0.6796735787350611
8.394999999999913,0.69,0.6796142177355212
8.399999999999913,0.69,0.6796350284066035
8.404999999999914,0.59,0.6797980377621148
8.409999999999915,0.59,0.6800988446348686
8.414999999999916,0.92,0.6804404812156527
8.419999999999916,0.92,0.6806609142657143
8.424999999999917,0.47,0.6807583085521358
8.429999999999918,0.47,0.6808848922468522
8.434999999999919,0.73,0.6810588492759745
8.43999999999992,0.73,0.6811683575150591
8.44499999999992,0.76,0.6811641521207293
8.449999999999921,0.76,0.6810447988697887
8.454999999999922,0.53,0.6808159163604645
8.459999999999923,0.53,0.6805299589159272
8.464999999999923,0.78,0.6802567286067119
8.469999999999924,0.78,0.6800290140907473
8.474999999999925,0.63,0.6798935758934159
8.479999999999926,0.63,0.6799200796076063
8.484999999999927,0.77,0.6801058089249726
8.489999999999927,0.77,0.680414290939744
8.494999999999928,0.63,0.6809219569431102
8.499999999999929,0.63,0.681738261231842
8.50499999999993,0.61,0.6828214605271169
8.50999999999993,0.61,0.6840375493861198
8.514999999999931,0.85,0.6852282533127217
8.519999999999932,0.85,0.6861993244003607
8.524999999999933,0.48,0.6868783049785618
8.529999999999934,0.48,0.6873687739811772
8.534999999999934,0.78,0.6877140934625666
8.539999999999935,0.78,0.6878546214821434
8.544999999999936,0.64,0.6878164869478229
8.549999999999937,0.64,0.6876894349946169
8.554999999999938,0.73,0.6875477798255424
8.559999999999938,0.73,0.6875098464751976
8.564999999999939,0.74,0.6877132226419274
8.56999999999994,0.74,0.6882031206831445
8.57499999999994,0.6,0.688938531013982
8.579999999999941,0.6,0.689876238306088
8.584999999999942,0.92,0.6910002458318218
8.589999999999943,0.92,0.6922635674958474
8.594999999999944,0.5,0.6935560363064495
8.599999999999945,0.5,0.6947653566102094
8.604999999999945,0.7,0.6957968390685716
8.609999999999946,0.7,0.6965771541481401
8.614999999999947,0.72,0.6970316983726481
8.619999999999948,0.72,0.6970470261204025
8.624999999999948,0.57,0.696556183103401
8.62999999999995,0.57,0.695661105646008
8.63499999999995,0.84,0.6945860066900085
8.63999999999995,0.84,0.6934992940780728
8.644999999999952,0.6,0.6924342998278269
8.649999999999952,0.6,0.6913794521189739
8.654999999999953,0.83,0.6903327732675975
8.659999999999954,0.83,0.6892929043577811
8.664999999999955,0.64,0.6883042128974801
8.669999999999956,0.64,0.6874093696965464
8.674999999999956,0.79,0.6865588264874866
8.679999999999957,0.79,0.6856701560053202
8.684999999999958,0.64,0.6846533940611185
8.689999999999959,0.64,0.6833470027705252
8.69499999999996,0.63,0.6816186958995528
8.69999999999996,0.63,0.6795065228431764
8.704999999999961,0.7,0.6771436406540828
8.709999999999962,0.7,0.6746326802457575
8.714999999999963,0.56,0.6720159996605214
8.719999999999963,0.56,0.6693091295760096
8.724999999999964,0.85,0.6665490367329843
8.729999999999965,0.85,0.6638377306436335
8.734999999999966,0.52,0.6612963265185189
8.739999999999966,0.52,0.658946490745689
8.744999999999967,0.65,0.6567237110402673
8.749999999999968,0.65,0.6546042425513506
8.754999999999969,0.78,0.6526153379350825
8.75999999999997,0.78,0.6507352066346499
8.76499999999997,0.51,0.6488892168536465
8.769999999999971,0.51,0.6470218745325016
8.774999999999972,0.75,0.645096077402778
8.779999999999973,0.75,0.6430561063596357
8.784999999999973,0.54,0.640863888111787
8.789999999999974,0.54,0.6385325129280758
8.794999999999975,0.75,0.63606597344149
8.799999999999976,0.75,0.6334933074794182
8.804999999999977,0.6,0.6309620152520948
8.809999999999977,0.6,0.6286307870772887
8.814999999999978,0.56,0.62651867857846
8.819999999999979,0.56,0.6245787130405357
8.82499999999998,0.77,0.622755383825266
8.82999999999998,0.77,0.6209586758365558
8.834999999999981,0.44,0.6192038074032908
8.839999999999982,0.44,0.6176289219904997
8.844999999999983,0.71,0.6162612308732384
8.849999999999984,0.71,0.6150065539863973
8.854999999999984,0.54,0.6137840312054358
8.859999999999985,0.54,0.6125270194171877
8.864999999999986,0.63,0.6112367699889516
8.869999999999987,0.63,0.61003865282661
8.874999999999988,0.6,0.6090916618594203
8.879999999999988,0.6,0.6084739161123977
8.88499999999999,0.51,0.6082035635796681
8.88999999999999,0.51,0.6082986382221232
8.89499999999999,0.84,0.6086955479518521
8.899999999999991,0.84,0.6092581850958911
8.904999999999992,0.43,0.6099690727190022
8.909999999999993,0.43,0.6108995295692672
8.914999999999994,0.65,0.6120143786426604
8.919999999999995,0.65,0.6132038996572866
8.924999999999995,0.71,0.6143427964140602
8.929999999999996,0.71,0.6152946627179217
8.934999999999997,0.45,0.6160597657830903
8.939999999999998,0.45,0.6167758802531093
8.944999999999999,0.67,0.6174585439251502
8.95,0.67,0.6179871112350154
8.955,0.59,0.6183403691122349
8.96,0.59,0.6186150711338111
8.965000000000002,0.75,0.6188603902801476
8.970000000000002,0.75,0.6190676418478966
8.975000000000003,0.57,0.6192703787675027
8.980000000000004,0.57,0.6195431168025156
8.985000000000005,0.54,0.6199683943916965
8.990000000000006,0.54,0.6206041871136996
8.995000000000006,0.82,0.6213732290807314
9.000000000000007,0.82,0.622084091076036
9.005000000000008,0.45,0.6227017729496942
9.010000000000009,0.45,0.6233667065250754
9.01500000000001,0.63,0.6240842112444687
9.02000000000001,0.63,0.6247058195352684
9.025000000000011,0.73,0.625139552976486
9.030000000000012,0.73,0.6253785238205769
9.035000000000013,0.48,0.6255197693491948
9.040000000000013,0.48,0.6257507953149158
9.045000000000014,0.71,0.626159755955957
9.050000000000015,0.71,0.6267074654575331
9.055000000000016,0.55,0.6273763672486793
9.060000000000016,0.55,0.6281712984795726
9.065000000000017,0.7,0.6290116183724411
9.070000000000018,0.7,0.6297676117422863
9.075000000000019,0.65,0.6304708541390543
9.08000000000002,0.65,0.6312885042443075
9.08500000000002,0.55,0.6322986741645967
9.090000000000021,0.55,0.6334735547807661
9.095000000000022,0.79,0.6347076444044668
9.100000000000023,0.79,0.6358403250689165
9.105000000000024,0.46,0.6368572136120356
9.110000000000024,0.46,0.6379033467145637
9.115000000000025,0.71,0.639007165735759
9.120000000000026,0.71,0.6400652307630246
9.125000000000027,0.71,0.6410211309619261
9.130000000000027,0.71,0.6418600845990883
9.135000000000028,0.54,0.6426093943697126
9.140000000000029,0.54,0.6433599131248043
9.14500000000003,0.69,0.6441349625762733
9.15000000000003,0.69,0.6448739350321607
9.155000000000031,0.54,0.6456088033888174
9.160000000000032,0.54,0.6464554544435022
9.165000000000033,0.83,0.6474313546266068
9.170000000000034,0.83,0.6484576692511593
9.175000000000034,0.56,0.6495114944809914
9.180000000000035,0.56,0.6506225891058571
9.185000000000036,0.62,0.6518035284386507
9.190000000000037,0.62,0.6530516595013387
9.195000000000038,0.78,0.6542877939042744
9.200000000000038,0.78,0.6553758367498622
9.20500000000004,0.49,0.6563404776659446
9.21000000000004,0.49,0.657354818563286
9.21500000000004,0.76,0.6584388110655951
9.220000000000041,0.76,0.6594396041808861
9.225000000000042,0.66,0.66024516814192
9.230000000000043,0.66,0.6608291120156328
9.235000000000044,0.59,0.6612733862865594
9.240000000000045,0.59,0.6617303142385299
9.245000000000045,0.77,0.6622308999415704
9.250000000000046,0.77,0.6627020576342874
9.255000000000047,0.56,0.663145262772086
9.260000000000048,0.56,0.6636270268066244
9.265000000000049,0.78,0.6641198602440931
9.27000000000005,0.78,0.6644836491573586
9.27500000000005,0.62,0.6646583550645686
9.28000000000005,0.62,0.6647228978160543
9.285000000000052,0.6,0.664763181081403
9.290000000000052,0.6,0.6648032797764643
9.295000000000053,0.82,0.664780021646368
9.300000000000054,0.82,0.6645964347928109
9.305000000000055,0.49,0.6643129402596079
9.310000000000056,0.49,0.6641206901744419
9.315000000000056,0.73,0.6640673760351453
9.320000000000057,0.73,0.6640276798841795
9.325000000000058,0.76,0.6638887711956963
9.330000000000059,0.76,0.6636298087031289
9.33500000000006,0.52,0.6633286381181762
9.34000000000006,0.52,0.6630865768484937
9.345000000000061,0.74,0.6628742275857008
9.350000000000062,0.74,0.6625760886035761
9.355000000000063,0.6,0.6622220325716306
9.360000000000063,0.6,0.6619674985853481
9.365000000000064,0.71,0.6618616365483616
9.370000000000065,0.71,0.6618187970485788
9.375000000000066,0.67,0.6617820490112966
9.380000000000067,0.67,0.6617777468232104
9.385000000000067,0.58,0.6618375972872638
9.390000000000068,0.58,0.6619596925596175
9.395000000000069,0.83,0.6620633360191759
9.40000000000007,0.83,0.6620233162908161
9.40500000000007,0.53,0.6618753918401947
9.410000000000071,0.53,0.6618015318653315
9.415000000000072,0.64,0.6618417447087903
9.420000000000073,0.64,0.661861354736163
9.425000000000074,0.77,0.6617369849231788
9.430000000000074,0.77,0.6614162834365537
9.435000000000075,0.51,0.6609706489244973
9.440000000000076,0.51,0.6605608882039168
9.445000000000077,0.82,0.6602180670503025
9.450000000000077,0.82,0.6598517831061662
9.455000000000078,0.6,0.6594669559078594
9.460000000000079,0.6,0.6591644525749363
9.46500000000008,0.68,0.6590010116192695
9.47000000000008,0.68,0.6589609495940054
9.475000000000081,0.65,0.6590262141456888
9.480000000000082,0.65,0.6592028772908146
9.485000000000083,0.58,0.6595137556766458
9.490000000000084,0.58,0.6599760723097935
9.495000000000084,0.81,0.6605055907811825
9.500000000000085,0.81,0.6609479033295744
9.505000000000086,0.52,0.6613267802208579
9.510000000000087,0.52,0.6618330020929376
9.515000000000088,0.67,0.6625388263613871
9.520000000000088,0.67,0.6633733939532366
9.52500000000009,0.76,0.6642225450782574
9.53000000000009,0.76,0.6649782631514153
9.53500000000009,0.5,0.6656771732351019
9.540000000000092,0.5,0.6664613345391858
9.545000000000092,0.78,0.6673034384176091
9.550000000000093,0.78,0.6680143430916273
9.555000000000094,0.65,0.6685333348201228
9.560000000000095,0.65,0.6689565454718011
9.565000000000095,0.69,0.6693606922358846
9.570000000000096,0.69,0.6697484839970653
9.575000000000097,0.69,0.6700593681096657
9.580000000000098,0.69,0.6702434075844996
9.585000000000099,0.59,0.6703687224908756
9.5900000000001,0.59,0.6705487517330577
9.5950000000001,0.88,0.6707535254675543
9.600000000000101,0.88,0.6708419788560005
9.605000000000102,0.53,0.6708073005008082
9.610000000000102,0.53,0.670787490825226
9.615000000000103,0.63,0.6708372870838558
9.620000000000104,0.63,0.6708894121014938
9.625000000000105,0.8,0.6708479592531307
9.630000000000106,0.8,0.6706471991980267
9.635000000000106,0.48,0.6703722855409568
9.640000000000107,0.48,0.6702155218308274
9.645000000000108,0.79,0.6702091851618339
9.650000000000109,0.79,0.670225180901554
9.65500000000011,0.66,0.6702235831625208
9.66000000000011,0.66,0.6702695955825235
9.665000000000111,0.57,0.6704023552675759
9.670000000000112,0.57,0.6706148828974663
9.675000000000113,0.81,0.6708963370761677
9.680000000000113,0.81,0.6712658079177692
9.685000000000114,0.55,0.6718110794536422
9.690000000000115,0.55,0.6726235045817516
9.695000000000116,0.82,0.6736334335996327
9.700000000000117,0.82,0.674640940888803
9.705000000000117,0.59,0.6755862963710457
9.710000000000118,0.59,0.6765785174938641
9.715000000000119,0.64,0.6776253159443618
9.72000000000012,0.64,0.6786073901228863
9.72500000000012,0.82,0.6793822172722354
9.730000000000121,0.82,0.679823766677552
9.735000000000122,0.5,0.6799606622942345
9.740000000000123,0.5,0.679958728547183
9.745000000000124,0.78,0.6798529665464007
9.750000000000124,0.78,0.6795244502791647
9.755000000000125,0.65,0.6789402475997492
9.760000000000126,0.65,0.6781866250131825
9.765000000000127,0.65,0.6773586541632705
9.770000000000127,0.65,0.6765461362734037
9.775000000000128,0.81,0.6757969387947595
9.780000000000129,0.81,0.6750809239888991
9.78500000000013,0.58,0.6743956503358292
9.79000000000013,0.58,0.6737975032952006
9.795000000000131,0.82,0.6732425087777582
9.800000000000132,0.82,0.6725841390580708
9.805000000000133,0.53,0.6718062717121959
9.810000000000134,0.53,0.6710295736354143
9.815000000000135,0.64,0.6703054949686381
9.820000000000135,0.64,0.6695945709825252
9.825000000000136,0.78,0.6688162532207361
9.830000000000137,0.78,0.6678803011027693
9.835000000000138,0.52,0.6668405571738059
9.840000000000138,0.52,0.6658970545809966
9.84500000000014,0.75,0.6651578106638057
9.85000000000014,0.75,0.6645942793663089
9.85500000000014,0.62,0.6642266966039719
9.860000000000142,0.62,0.6641387609539692
9.865000000000142,0.68,0.6643402429545684
9.870000000000143,0.68,0.6647844754365029
9.875000000000144,0.69,0.6654550180321503
9.880000000000145,0.69,0.6662950701746874
9.885000000000145,0.57,0.6671450191383944
9.890000000000146,0.57,0.6678555246343723
9.895000000000147,0.82,0.6683333185307466
9.900000000000148,0.82,0.6685050853343206
9.905000000000149,0.57,0.6684233552941237
9.91000000000015,0.57,0.6682638983263839
9.91500000000015,0.64,0.668099877701549
9.920000000000151,0.64,0.6678995374197682
9.925000000000152,0.78,0.6676850578056407
9.930000000000152,0.78,0.6674944062657261
9.935000000000153,0.6,0.6673415392497923
9.940000000000154,0.6,0.6672741153717789
9.945000000000155,0.76,0.6673150878704597
9.950000000000156,0.76,0.6674263291956813
9.955000000000156,0.57,0.6676417282746384
9.960000000000157,0.57,0.668052789196653
9.965000000000158,0.8,0.6686506157582164
9.970000000000159,0.8,0.6693592361459759
9.97500000000016,0.46,0.6701753682421446
9.98000000000016,0.46,0.6711221157650732
9.985000000000161,0.7,0.6721427858156849
9.990000000000162,0.7,0.673158551269034
9.995000000000163,0.77,0.6740684217882318
10.000000000000163,0.77,0.6747505625510468
10.005000000000164,0.53,0.6752646450823248
10.010000000000165,0.53,0.6758256678185105
10.015000000000166,0.8,0.6765295911208505
10.020000000000167,0.8,0.6773545995846013
10.025000000000167,0.61,0.6782868084771406
10.030000000000168,0.61,0.6792829526701588
10.035000000000169,0.68,0.6802676337628875
10.04000000000017,0.68,0.6812181467800014
10.04500000000017,0.82,0.68218641172381
10.050000000000171,0.82,0.6831981386919772
10.055000000000172,0.58,0.6841828188561591
10.060000000000173,0.58,0.6850501796805996
10.065000000000174,0.85,0.6857042637929961
10.070000000000174,0.85,0.686051644167119
10.075000000000175,0.51,0.6861779660560541
10.080000000000176,0.51,0.6863326763271158
10.085000000000177,0.65,0.6866644130917099
10.090000000000177,0.65,0.6872463283440549
10.095000000000178,0.87,0.6884450332161617
10.100000000000179,0.87,0.6909026896559091
10.10500000000018,0.51,0.6956034480126849
10.11000000000018,0.51,0.7037684620523321
10.115000000000181,0.78,0.7165655202809499
10.120000000000182,0.78,0.7347897394036664
10.125000000000183,0.58,0.7586292473227435
10.130000000000184,0.58,0.7877157482934498
10.135000000000185,0.83,0.8212756771441687
10.140000000000185,0.83,0.858716100266945
10.145000000000186,0.55,0.9000435355341034
10.150000000000187,0.55,0.9453712941416118
10.155000000000188,0.67,0.9945191765320045
10.160000000000188,0.67,1.047293521360603
10.16500000000019,0.88,1.1035757741647665
10.17000000000019,0.88,1.1633617900084388
10.17500000000019,0.62,1.2268812116156258
10.180000000000192,0.62,1.2946188938426975
10.185000000000192,1.31,1.367191075036879
10.190000000000193,1.31,1.445158877598848
10.195000000000194,2.06,1.528905433192096
10.200000000000195,2.06,1.6182511523974448
10.205000000000195,1.9,1.7104442051692967
10.210000000000196,1.9,1.7988089508151281
10.215000000000197,1.64,1.873259168929508
10.220000000000198,1.64,1.926034369145058
10.225000000000199,3.2,1.9596220085306053
10.2300000000002,3.2,1.9839891431356917
10.2350000000002,2.37,2.0073553561772255
10.240000000000201,2.37,2.0329759904099105
10.245000000000202,4.09,2.0613259454300996
10.250000000000203,4.09,2.090956636817368
10.255000000000203,4.09,2.1192377299404472
10.260000000000204,4.09,2.1443449786694355
10.265000000000205,4.02,2.1660476575374368
10.270000000000206,4.02,2.1847882197264346
10.275000000000206,3.34,2.2012849813402333
10.280000000000207,3.34,2.2160247826588333
10.285000000000208,3.57,2.2289462234061195
10.290000000000209,3.57,2.240089776769434
10.29500000000021,1.85,2.2490845646576485
10.30000000000021,1.85,2.2537390478457233
10.305000000000211,2.3,2.2508399515736675
10.310000000000212,2.3,2.2382074748050824
10.315000000000213,2.89,2.2161285279921374
10.320000000000213,2.89,2.18689975796383
10.325000000000214,1.53,2.1523608833071726
10.330000000000215,1.53,2.1127903649495585
10.335000000000216,3.51,2.0697198471119296
10.340000000000217,3.51,2.026032254546259
10.345000000000217,2.01,1.9833956208379786
10.350000000000218,2.01,1.9418544673125633
10.355000000000219,0.77,1.9009786305000953
10.36000000000022,0.77,1.860413061167531
10.36500000000022,0.47,1.82024507971771
10.370000000000221,0.47,1.7807308909430488
10.375000000000222,1.83,1.7417571005059962
10.380000000000223,1.83,1.7028886932433571
10.385000000000224,1.62,1.6638176400812246
10.390000000000224,1.62,1.6246446447823029
10.395000000000225,0.7,1.5862004625832957
10.400000000000226,0.7,1.550072450305977
10.405000000000227,2.56,1.517599657113941
10.410000000000228,2.56,1.489143464733356
10.415000000000228,1.25,1.464165734708827
10.420000000000229,1.25,1.441654387378164
10.42500000000023,1.99,1.4212762977951439
10.43000000000023,1.99,1.403608544845692
10.435000000000231,0.85,1.3888389732297486
10.440000000000232,0.85,1.376552375029353
10.445000000000233,1.04,1.3661049354409844
10.450000000000234,1.04,1.3566763275214921
10.455000000000235,1.41,1.3476796772822195
10.460000000000235,1.41,1.3391800751307432
10.465000000000236,1.02,1.3317437896378106
10.470000000000237,1.02,1.325999990258951
10.475000000000238,2.15,1.3221872586668562
10.480000000000238,2.15,1.3200105636525428
10.48500000000024,1.93,1.318825210947022
10.49000000000024,1.93,1.3178307941310636
10.49500000000024,0.69,1.3161138271857562
10.500000000000242,0.69,1.3129838558355875
10.505000000000242,1.21,1.3089166134847263
10.510000000000243,1.21,1.3052522803365436
10.515000000000244,1.8,1.3029563488652376
10.520000000000245,1.8,1.302416975584484
10.525000000000245,0.99,1.303903022620025
10.530000000000246,0.99,1.3074439602575143
10.535000000000247,2.91,1.3128748062581712
10.540000000000248,2.91,1.319704863647378
10.545000000000249,0.75,1.3266197925038796
10.55000000000025,0.75,1.3323397999646636
10.55500000000025,2.27,1.3362149954713283
10.560000000000251,2.27,1.3380700179545957
10.565000000000252,2.94,1.338225529898928
10.570000000000253,2.94,1.3374721137303591
10.575000000000253,0.69,1.3365645864025968
10.580000000000254,0.69,1.3357773624235476
10.585000000000255,1.05,1.3351508765472035
10.590000000000256,1.05,1.3345514774010965
10.595000000000256,2.0,1.3342057457932655
10.600000000000257,2.0,1.3351432154924854
10.605000000000258,3.93,1.338240750853842
10.610000000000259,3.93,1.3437428030883698
10.61500000000026,1.61,1.3514479760625475
10.62000000000026,1.61,1.3608147422130585
10.625000000000261,1.58,1.3718871219112432
10.630000000000262,1.58,1.3853929925121413
10.635000000000263,0.78,1.401470066151602
10.640000000000263,0.78,1.4195051960628744
10.645000000000264,1.13,1.438771528245805
10.650000000000265,1.13,1.4585621689722335
10.655000000000266,1.27,1.477790082109481
10.660000000000267,1.27,1.4950930821727615
10.665000000000267,1.18,1.5097755478330996
10.670000000000268,1.18,1.5220851364390926
10.675000000000269,1.41,1.532957610098528
10.68000000000027,1.41,1.543589321834379
10.68500000000027,2.01,1.5544421256213818
10.690000000000271,2.01,1.5649800448486493
10.695000000000272,1.88,1.5740228603688697
10.700000000000273,1.88,1.5805562606465986
10.705000000000274,2.1,1.5847243072023742
10.710000000000274,2.1,1.5871497183989316
10.715000000000275,2.05,1.5879769566517201
10.720000000000276,2.05,1.5872706007220383
10.725000000000277,1.29,1.5853906564264066
10.730000000000278,1.29,1.5824085965206502
10.735000000000278,3.46,1.5777218302187113
10.740000000000279,3.46,1.57059224020887
10.74500000000028,1.12,1.5606263605284136
10.75000000000028,1.12,1.5478549091748912
10.755000000000281,0.3,1.5326475497706566
10.760000000000282,0.3,1.515497573876304
10.765000000000283,2.27,1.496790601883579
10.770000000000284,2.27,1.4772032770485897
10.775000000000285,0.96,1.4581775065653975
10.780000000000285,0.96,1.4412924989211806
10.785000000000286,1.42,1.427723725436516
10.790000000000287,1.42,1.4180000280149525
10.795000000000288,3.15,1.4123477787889647
10.800000000000288,3.15,1.4111019708558055
10.80500000000029,1.42,1.414670260267618
10.81000000000029,1.42,1.4229358818267794
10.81500000000029,2.5,1.4349044439269387
10.820000000000292,2.5,1.449234410467981
10.825000000000292,0.92,1.4651070703308493
10.830000000000293,0.92,1.4824391857425254
10.835000000000294,1.34,1.5013671420622174
10.840000000000295,1.34,1.5221848071151716
10.845000000000296,2.6,1.545168862539815
10.850000000000296,2.6,1.5704635540933214
10.855000000000297,1.06,1.5978005483097057
10.860000000000298,1.06,1.62639873375662
10.865000000000299,1.81,1.65481570378284
10.8700000000003,1.81,1.6813310467389018
10.8750000000003,1.6,1.7052827718436967
10.880000000000301,1.6,1.727043187221372
10.885000000000302,3.07,1.7471819602419416
10.890000000000303,3.07,1.7659831532283021
10.895000000000303,2.34,1.7830855341619987
10.900000000000304,2.34,1.7977967162071335
10.905000000000305,1.08,1.809272536529096
10.910000000000306,1.08,1.8169328643432168
10.915000000000306,2.18,1.8207209385747747
10.920000000000307,2.18,1.8209119828257965
10.925000000000308,2.72,1.8181150506524173
10.930000000000309,2.72,1.81302496845804
10.93500000000031,3.78,1.8060545717830114
10.94000000000031,3.78,1.7973301316238743
10.945000000000311,1.86,1.7866808148612294
10.950000000000312,1.86,1.7733458339568309
10.955000000000313,1.38,1.756768651063666
10.960000000000313,1.38,1.7373635939041716
10.965000000000314,0.42,1.7160903158250351
10.970000000000315,0.42,1.6940331693313049
10.975000000000316,2.31,1.6719293625066118
10.980000000000317,2.31,1.6501662450724839
10.985000000000317,1.44,1.628675238349406
10.990000000000318,1.44,1.6070643765235024
10.995000000000319,1.37,1.5852638636257477
11.00000000000032,1.37,1.5634749384749753
11.00500000000032,1.3,1.5425277413147835
11.010000000000321,1.3,1.5238761989941354
11.015000000000322,3.16,1.5087305904680754
11.020000000000323,3.16,1.497466800694921
11.025000000000324,3.6,1.4896836203784831
11.030000000000324,3.6,1.4846538897817843
11.035000000000325,1.61,1.481891280294491
11.040000000000326,1.61,1.4812684801287241
11.045000000000327,1.58,1.4823540481423838
11.050000000000328,1.58,1.484297818067049
11.055000000000328,1.5,1.4865223915190988
11.06000000000033,1.5,1.4889809135378516
11.06500000000033,0.77,1.4917548248456323
11.07000000000033,0.77,1.494673740396687
11.075000000000331,0.69,1.4967956849275001
11.080000000000332,0.69,1.4964826924610093
11.085000000000333,1.45,1.4924487121386831
11.090000000000334,1.45,1.484548604449226
11.095000000000335,2.15,1.4737531522045597
11.100000000000335,2.15,1.461418032670796
11.105000000000336,1.93,1.4485154057472978
11.110000000000337,1.93,1.4356288296620159
11.115000000000338,1.25,1.422947151369371
11.120000000000339,1.25,1.4104424827317532
11.12500000000034,2.33,1.3986146413842198
11.13000000000034,2.33,1.3880442104305353
11.13500000000034,0.84,1.3785025761014391
11.140000000000342,0.84,1.3692970104569455
11.145000000000342,3.16,1.3601815938661779
11.150000000000343,3.16,1.3512100375946818
11.155000000000344,2.97,1.3419036631772219
11.160000000000345,2.97,1.3315468572078761
11.165000000000346,1.14,1.3199238010300254
11.170000000000346,1.14,1.3071060324389001
11.175000000000347,1.27,1.293024657162983
11.180000000000348,1.27,1.2781537605703537
11.185000000000349,2.58,1.2639729693011716
11.19000000000035,2.58,1.2521206049226272
11.19500000000035,1.13,1.2437129708359915
11.200000000000351,1.13,1.2390065661804037
11.205000000000352,0.38,1.2376035021380816
11.210000000000353,0.38,1.2386344103878366
11.215000000000353,1.68,1.241287575094307
11.220000000000354,1.68,1.2452092242549313
11.225000000000355,2.77,1.2499032912534487
11.230000000000356,2.77,1.254646368886289
11.235000000000356,1.5,1.2590491381229614
11.240000000000357,1.5,1.2632312949209181
11.245000000000358,0.73,1.26718028530514
11.250000000000359,0.73,1.270634873195931
11.25500000000036,1.5,1.2736470967764175
11.26000000000036,1.5,1.27658690736502
11.265000000000361,0.67,1.2798600809371865
11.270000000000362,0.67,1.283941763241278
11.275000000000363,1.41,1.2894935240580612
11.280000000000364,1.41,1.2971398263278031
11.285000000000364,1.26,1.307154520914345
11.290000000000365,1.26,1.3196627748028182
11.295000000000366,1.35,1.3346095378489673
11.300000000000367,1.35,1.351622377830254
11.305000000000367,2.67,1.3700038965665189
11.310000000000368,2.67,1.3886626556208514
11.315000000000369,3.03,1.4060876618317975
11.32000000000037,3.03,1.420977816430684
11.32500000000037,1.25,1.4333786678993232
11.330000000000371,1.25,1.4443099943894233
11.335000000000372,1.21,1.4547718053034178
11.340000000000373,1.21,1.465111901071559
11.345000000000374,1.73,1.4748662753544395
11.350000000000374,1.73,1.4835144342788618
11.355000000000375,2.45,1.4905209750092225
11.360000000000376,2.45,1.4950699426175516
11.365000000000377,2.12,1.4963375325174058
11.370000000000378,2.12,1.4938195118746196
11.375000000000378,0.16,1.4870657333776804
11.38000000000038,0.16,1.4757023055997274
11.38500000000038,0.66,1.4599539429003694
11.39000000000038,0.66,1.4408322389242716
11.395000000000381,1.51,1.4198726993842183
11.400000000000382,1.51,1.3984147247840193
11.405000000000383,1.43,1.3769946684445522
11.410000000000384,1.43,1.3550659276102361
11.415000000000385,2.21,1.331714977561525
11.420000000000385,2.21,1.306145225105881
11.425000000000386,2.37,1.2784582021227688
11.430000000000387,2.37,1.2503591293380043
11.435000000000388,1.07,1.2240002136973294
11.440000000000389,1.07,1.2008839522622967
11.44500000000039,0.45,1.181124748232907
11.45000000000039,0.45,1.1635532542852662
11.45500000000039,0.76,1.1468404074862724
11.460000000000392,0.76,1.1300865735441847
11.465000000000392,1.05,1.11284262258294
11.470000000000393,1.05,1.0948639332370529
11.475000000000394,0.94,1.0760792693425159
11.480000000000395,0.94,1.0569891897519996
11.485000000000396,2.08,1.0388650380629703
11.490000000000396,2.08,1.0233246867960644
11.495000000000397,4.01,1.0113764880847123
11.500000000000398,4.01,1.0030368327001964
11.505000000000399,1.15,0.9978583454951699
11.5100000000004,1.15,0.9952353296901936
11.5150000000004,1.58,0.994433971869051
11.520000000000401,1.58,0.9945777157881599
11.525000000000402,0.72,0.9945611495688356
11.530000000000403,0.72,0.9931938221777217
11.535000000000403,0.51,0.989357919258685
11.540000000000404,0.51,0.9824658414037603
11.545000000000405,2.39,0.9731294369291827
11.550000000000406,2.39,0.9628316245139436
11.555000000000407,1.0,0.9532853727566406
11.560000000000407,1.0,0.945946626510341
11.565000000000408,0.62,0.9414086721399612
11.570000000000409,0.62,0.9394077638897393
11.57500000000041,1.86,0.9392324110958632
11.58000000000041,1.86,0.9402199054934052
11.585000000000411,0.86,0.9421692856624779
11.590000000000412,0.86,0.9452120728194201
11.595000000000413,2.69,0.9497654048087091
11.600000000000414,2.69,0.9563789776470154
11.605000000000414,3.55,0.9650411020610876
11.610000000000415,3.55,0.9748743312361609
11.615000000000416,0.74,0.9844257897576852
11.620000000000417,0.74,0.9920424570208948
11.625000000000417,0.55,0.9967217003635997
11.630000000000418,0.55,0.9985477824678284
11.635000000000419,1.54,0.9980417595022666
11.64000000000042,1.54,0.9958962869570827
11.64500000000042,1.59,0.9926257257652474
11.650000000000421,1.59,0.9881383929019859
11.655000000000422,0.87,0.9818909217418208
11.660000000000423,0.87,0.973456320255725
11.665000000000424,0.82,0.962950904251155
11.670000000000424,0.82,0.950895492086408
11.675000000000425,1.49,0.937764210337326
11.680000000000426,1.49,0.9238429210422094
11.685000000000427,1.21,0.9096666948006172
11.690000000000428,1.21,0.896002579010946
11.695000000000428,0.47,0.8832610768904395
11.70000000000043,0.47,0.8712668345226563
11.70500000000043,0.41,0.8595305508045665
11.71000000000043,0.41,0.8477001744818361
11.715000000000432,1.01,0.8359758983357082
11.720000000000432,1.01,0.8250498144490763
11.725000000000433,0.27,0.815755321223748
11.730000000000434,0.27,0.8087673767795029
11.735000000000435,0.86,0.8042043512581782
11.740000000000435,0.86,0.8015023374165631
11.745000000000436,0.42,0.7997032911683465
11.750000000000437,0.42,0.7978744099711164
11.755000000000438,1.78,0.7954306832258216
11.760000000000439,1.78,0.7923499149830796
11.76500000000044,0.99,0.7892292773682466
11.77000000000044,0.99,0.7867838734673377
11.775000000000441,0.74,0.7851295350217683
11.780000000000442,0.74,0.7837199366614381
11.785000000000442,0.88,0.781693346746582
11.790000000000443,0.88,0.7781896255895738
11.795000000000444,1.88,0.7726537883382408
11.800000000000445,1.88,0.7650991936744224
11.805000000000446,0.85,0.7559719395328077
11.810000000000446,0.85,0.745858267380612
11.815000000000447,1.22,0.7352129418433361
11.820000000000448,1.22,0.7241682146815174
11.825000000000449,0.68,0.7126284702025174
11.83000000000045,0.68,0.7006414894516168
11.83500000000045,0.18,0.6885710010223721
11.840000000000451,0.18,0.6769280343315106
11.845000000000452,0.32,0.6664396194582044
11.850000000000453,0.32,0.6578990688313399
11.855000000000453,1.25,0.6516421618883558
11.860000000000454,1.25,0.6474641594539168
11.865000000000455,0.46,0.6449101745500101
11.870000000000456,0.46,0.6433972708516109
11.875000000000457,0.12,0.642517093902302
11.880000000000457,0.12,0.6422230505472122
11.885000000000458,0.4,0.6426732273380407
11.890000000000459,0.4,0.6441174658432076
11.89500000000046,0.83,0.6469560545996251
11.90000000000046,0.83,0.6516082733134442
11.905000000000461,0.79,0.6576608550634668
11.910000000000462,0.79,0.6636079864790048
11.915000000000463,2.04,0.6673697448301811
11.920000000000464,2.04,0.6670385267289833
11.925000000000464,0.93,0.6616608445664468
11.930000000000465,0.93,0.6515750476820349
11.935000000000466,0.94,0.6379178041773549
11.940000000000467,0.94,0.6221880730961332
11.945000000000467,0.59,0.6060629999844328
11.950000000000468,0.59,0.5906923991156223
11.955000000000469,0.55,0.5765362446885203
11.96000000000047,0.55,0.5633602213262459
11.96500000000047,2.08,0.5507301835316072
11.970000000000471,2.08,0.5383819541116726
11.975000000000472,2.61,0.5258394265505179
11.980000000000473,2.61,0.5126426538517773
11.985000000000474,2.24,0.4985871223761989
11.990000000000475,2.24,0.4837392624168208
11.995000000000475,0.21,0.46831975290737626
12.000000000000476,0.21,0.45245676884559166
12.005000000000477,0.36,0.4365258729976469
12.010000000000478,0.36,0.4210370244232134
12.015000000000478,0.19,0.40649519641716586
12.02000000000048,0.19,0.3939501893719255
12.02500000000048,0.05,0.3849130707463469
12.03000000000048,0.05,0.3805216865638272
12.035000000000482,1.25,0.38129285173624233
12.040000000000482,1.25,0.38688030774763466
12.045000000000483,0.66,0.3961320508540916
12.050000000000484,0.66,0.40766984442296084
12.055000000000485,0.64,0.4203954568873653
12.060000000000485,0.64,0.43376314318842385
12.065000000000486,0.17,0.44774091735454596
12.070000000000487,0.17,0.46255612894745574
12.075000000000488,0.2,0.47838345244563546
12.080000000000489,0.2,0.49523855748334955
12.08500000000049,0.38,0.5129512699039603
12.09000000000049,0.38,0.5312674360380264
12.095000000000491,1.05,0.5499163983624226
12.100000000000492,1.05,0.5686202027608076
12.105000000000492,2.2,0.5868891031233249
12.110000000000493,2.2,0.6040891106658473
12.115000000000494,0.46,0.6197027712596221
12.120000000000495,0.46,0.6335044299745357
12.125000000000496,0.43,0.6455745072565128
12.130000000000496,0.43,0.6562715138258003
12.135000000000497,0.66,0.666061133422064
12.140000000000498,0.66,0.6751206897571558
12.145000000000499,0.83,0.6832777267395848
12.1500000000005,0.83,0.690113644669132
12.1550000000005,1.06,0.6950847864761426
12.160000000000501,1.06,0.6977219970099299
12.165000000000502,1.07,0.6978382929083592
12.170000000000503,1.07,0.6956965687988667
12.175000000000503,0.88,0.6918177540296881
12.180000000000504,0.88,0.6867997310066469
12.185000000000505,0.77,0.6811729031978522
12.190000000000506,0.77,0.6752286268804203
12.195000000000507,0.45,0.668845791203027
12.200000000000507,0.45,0.661483419510648
12.205000000000508,0.39,0.6526467845848638
12.210000000000509,0.39,0.6420657351095864
12.21500000000051,0.47,0.6298797098385978
12.22000000000051,0.47,0.61670897236856
12.225000000000511,0.71,0.603274670409306
12.230000000000512,0.71,0.5903247396405917
12.235000000000513,0.55,0.5786421150699944
12.240000000000514,0.55,0.5688792426805804
12.245000000000514,0.49,0.5614754632372335
12.250000000000515,0.49,0.5565998313706598
12.255000000000516,0.44,0.5541886752568246
12.260000000000517,0.44,0.5539920952439837
12.265000000000517,0.63,0.5557289734222736
12.270000000000518,0.63,0.5590774581367729
12.275000000000519,0.6,0.5635837337296274
12.28000000000052,0.6,0.568758290431322
12.28500000000052,0.37,0.5742288935517321
12.290000000000521,0.37,0.5797581055601607
12.295000000000522,0.57,0.585198118433891
12.300000000000523,0.57,0.5905694571044753
12.305000000000524,0.81,0.5959862545759662
12.310000000000525,0.81,0.6016195574435161
12.315000000000525,0.44,0.6076628069892598
12.320000000000526,0.44,0.6142100898786959
12.325000000000527,0.74,0.6211406136629973
12.330000000000528,0.74,0.6281745116035196
12.335000000000528,0.63,0.6351175948737842
12.34000000000053,0.63,0.6418986137478914
12.34500000000053,0.61,0.6484491281717765
12.35000000000053,0.61,0.6547390236922995
12.355000000000532,0.76,0.6608657886284186
12.360000000000532,0.76,0.6669822813303273
12.365000000000533,0.56,0.6731291549825629
12.370000000000534,0.56,0.6792003463125291
12.375000000000535,0.82,0.6850637794703102
12.380000000000535,0.82,0.690671691471451
12.385000000000536,0.61,0.6961662324613346
12.390000000000537,0.61,0.7017979963520792
12.395000000000538,0.69,0.7076224854204222
12.400000000000539,0.69,0.7134980890270364
12.40500000000054,0.85,0.7192906414493805
12.41000000000054,0.85,0.7249022897766045
12.415000000000541,0.56,0.7304170873280336
12.420000000000542,0.56,0.7360678554461477
12.425000000000542,0.82,0.7419033487867543
12.430000000000543,0.82,0.7477906713451254
12.435000000000544,0.66,0.7537232561623288
12.440000000000545,0.66,0.7598202859515474
12.445000000000546,0.9,0.7661632462742226
12.450000000000546,0.9,0.7727960719783524
12.455000000000547,0.77,0.7797675170550277
12.460000000000548,0.77,0.7870934264803952
12.465000000000549,0.72,0.7948121383898891
12.47000000000055,0.72,0.8029950256562477
12.47500000000055,0.98,0.811605532789262
12.480000000000551,0.98,0.8205109234160771
12.485000000000552,0.58,0.8297411466431053
12.490000000000553,0.58,0.8394495948700672
12.495000000000553,0.87,0.8496453974124029
12.500000000000554,0.87,0.8602105320161386
12.505000000000555,1.02,0.8710435070831457
12.510000000000556,1.02,0.8820757027781622
12.515000000000557,0.66,0.8933845061172205
12.520000000000557,0.66,0.9051429466801314
12.525000000000558,1.05,0.9172977679281352
12.530000000000559,1.05,0.9296190306109632
12.53500000000056,0.84,0.9420298782533605
12.54000000000056,0.84,0.9545875620544236
12.545000000000561,1.04,0.9672635674998181
12.550000000000562,1.04,0.9798962043541203
12.555000000000563,1.01,0.9923180554369001
12.560000000000564,1.01,1.004431407609169
12.565000000000564,0.93,1.016197997040698
12.570000000000565,0.93,1.0275840823331133
12.575000000000566,1.31,1.0384360395901766
12.580000000000567,1.31,1.0485379815597342
12.585000000000568,0.9,1.0578932461210766
12.590000000000568,0.9,1.0667036363260747
12.595000000000569,1.16,1.0750154514112256
12.60000000000057,1.16,1.082668973768872
12.60500000000057,1.31,1.089467237817653
12.610000000000571,1.31,1.0952705582304063
12.615000000000572,0.82,1.1002068107958645
12.620000000000573,0.82,1.104578921868967
12.625000000000574,1.3,1.1084410061188743
12.630000000000575,1.3,1.1116233673920537
12.635000000000575,1.1,1.114115718834309
12.640000000000576,1.1,1.1160914499902008
12.645000000000577,1.12,1.117691686776625
12.650000000000578,1.12,1.118950979535486
12.655000000000578,1.18,1.1198630024789455
12.66000000000058,1.18,1.1204530728760262
12.66500000000058,0.98,1.120842132134537
12.67000000000058,0.98,1.1211700753454825
12.675000000000582,1.31,1.1214014585158782
12.680000000000582,1.31,1.12135996899147
12.685000000000583,0.94,1.1210618899872593
12.690000000000584,0.94,1.1207413917986913
12.695000000000585,1.07,1.120552701851406
12.700000000000585,1.07,1.1204649865386642
12.705000000000586,1.42,1.1203366149599494
12.710000000000587,1.42,1.1200310540646907
12.715000000000588,0.81,1.1196523041271957
12.720000000000589,0.81,1.1194886627345193
12.72500000000059,1.28,1.1195672415105378
12.73000000000059,1.28,1.1196297192152858
12.735000000000591,1.12,1.119498231261889
12.740000000000592,1.12,1.1191727646659404
12.745000000000593,1.05,1.1187732443145337
12.750000000000593,1.05,1.1184186588896396
12.755000000000594,1.22,1.1180651526041872
12.760000000000595,1.22,1.1175949942050494
12.765000000000596,0.96,1.1170434415184893
12.770000000000596,0.96,1.1165561140717115
12.775000000000597,1.28,1.1161326027660734
12.780000000000598,1.28,1.1156282151896804
12.785000000000599,1.08,1.1150316698087985
12.7900000000006,1.08,1.114524750414743
12.7950000000006,1.01,1.1142729566387002
12.800000000000601,1.01,1.1143055295783528
12.805000000000602,1.35,1.114476322698349
12.810000000000603,1.35,1.1145606310331269
12.815000000000603,0.8,1.1146218262427516
12.820000000000604,0.8,1.1149829388315917
12.825000000000605,1.16,1.115731321318801
12.830000000000606,1.16,1.1166579681671414
12.835000000000607,1.28,1.1175700016988162
12.840000000000607,1.28,1.1184268066449308
12.845000000000608,0.92,1.1193667168127428
12.850000000000609,0.92,1.1205630682562453
12.85500000000061,1.28,1.1219522127486736
12.86000000000061,1.28,1.1233331327194649
12.865000000000611,0.99,1.1246995262739967
12.870000000000612,0.99,1.1262072904684295
12.875000000000613,1.2,1.1278724882255706
12.880000000000614,1.2,1.1295316210807127
12.885000000000614,1.15,1.131067491026259
12.890000000000615,1.15,1.132480001228412
12.895000000000616,1.0,1.1337865100691777
12.900000000000617,1.0,1.1349785966225978
12.905000000000618,1.46,1.1359489549076491
12.910000000000618,1.46,1.136544218702766
12.915000000000619,0.92,1.1368856087947554
12.92000000000062,0.92,1.1373190510066762
12.92500000000062,1.11,1.1379202557791557
12.930000000000621,1.11,1.1384755840695502
12.935000000000622,1.4,1.1387985781784176
12.940000000000623,1.4,1.1387879400892047
12.945000000000624,0.83,1.1384881810245413
12.950000000000625,0.83,1.1380664855813385
12.955000000000625,1.34,1.1375435649998036
12.960000000000626,1.34,1.1367892446144052
12.965000000000627,1.05,1.1358215762582176
12.970000000000628,1.05,1.1348157290228555
12.975000000000628,1.17,1.1338286116601028
12.98000000000063,1.17,1.1327873396780959
12.98500000000063,1.12,1.131715022599327
12.99000000000063,1.12,1.1307290680418034
12.995000000000632,1.03,1.1299306558293665
13.000000000000632,1.03,1.1293795757831464
13.005000000000633,1.44,1.1289788841930295
13.010000000000634,1.44,1.1284993552945533
13.015000000000635,0.82,1.1279428244169278
13.020000000000636,0.82,1.127550733149548
13.025000000000636,1.17,1.1273667202854931
13.030000000000637,1.17,1.127234878441283
13.035000000000638,1.24,1.1270587498119131
13.040000000000639,1.24,1.126777820057078
13.04500000000064,0.95,1.126429767442032
13.05000000000064,0.95,1.1262080813576654
13.055000000000641,1.27,1.1261860803505603
13.060000000000642,1.27,1.1262415902133807
13.065000000000643,0.99,1.126363768320556
13.070000000000643,0.99,1.1266809961986584
13.075000000000644,1.26,1.127197326101115
13.080000000000645,1.26,1.1278184649348644
13.085000000000646,1.1,1.1285667044565928
13.090000000000646,1.1,1.1295317352312568
13.095000000000647,1.03,1.1306900311004968
13.100000000000648,1.03,1.1319244448891208
13.105000000000649,1.38,1.133036010805456
13.11000000000065,1.38,1.1337801807787848
13.11500000000065,0.8,1.1341728635053945
13.120000000000651,0.8,1.13448862626658
13.125000000000652,1.29,1.1348019402949803
13.130000000000653,1.29,1.1349508953719063
13.135000000000653,1.14,1.134812641383952
13.140000000000654,1.14,1.134353250502885
13.145000000000655,1.06,1.133694718307334
13.150000000000656,1.06,1.1330678115825272
13.155000000000657,1.3,1.1325042001414303
13.160000000000657,1.3,1.1318504079278646
13.165000000000658,0.97,1.1311019593300335
13.170000000000659,0.97,1.1304099580771767
13.17500000000066,1.33,1.12981422351152
13.18000000000066,1.33,1.1292235032164821
13.185000000000661,1.0,1.1286525447166016
13.190000000000662,1.0,1.1282317912601405
13.195000000000663,1.07,1.128063530543168
13.200000000000664,1.07,1.1281781246057618
13.205000000000664,1.35,1.1284369655590318
13.210000000000665,1.35,1.1285979763656222
13.215000000000666,0.83,1.1286678568451418
13.220000000000667,0.83,1.1289012823565039
13.225000000000668,1.19,1.1293485051380234
13.230000000000668,1.19,1.129799212462044
13.23500000000067,1.24,1.1301108235932569
13.24000000000067,1.24,1.1303058289413757
13.24500000000067,0.91,1.1305344932194037
13.250000000000671,0.91,1.1309499290790819
13.255000000000672,1.28,1.1314730361581202
13.260000000000673,1.28,1.1318779067167184
13.265000000000674,1.03,1.1321338932669125
13.270000000000675,1.03,1.132402277888089
13.275000000000675,1.32,1.1327329419430683
13.280000000000676,1.32,1.132998013917841
13.285000000000677,1.13,1.1330924900964028
13.290000000000678,1.13,1.1330568248192896
13.295000000000678,1.01,1.1330221940027883
13.30000000000068,1.01,1.1330758544439534
13.30500000000068,1.36,1.1331301264025802
13.31000000000068,1.36,1.133004610900314
13.315000000000682,0.9,1.1327642415720638
13.320000000000682,0.9,1.1326910491449376
13.325000000000683,1.16,1.1328228839915262
13.330000000000684,1.16,1.1329335650946424
13.335000000000685,1.3,1.1328357303565875
13.340000000000686,1.3,1.13246082522538
13.345000000000686,0.83,1.1319266382071098
13.350000000000687,0.83,1.1314769947384864
13.355000000000688,1.29,1.1311633025498837
13.360000000000689,1.29,1.1308539259803574
13.36500000000069,1.06,1.1305700279778597
13.37000000000069,1.06,1.1304749567489036
13.375000000000691,1.09,1.1305959637353893
13.380000000000692,1.09,1.1307916000581708
13.385000000000693,1.27,1.1309820117836724
13.390000000000693,1.27,1.1312295050058352
13.395000000000694,1.01,1.1316642210300718
13.400000000000695,1.01,1.1323947415619875
13.405000000000696,1.43,1.1333312720138111
13.410000000000696,1.43,1.134238205806357
13.415000000000697,0.86,1.1350833984300075
13.420000000000698,0.86,1.1360439872895367
13.425000000000699,1.16,1.1371320172529582
13.4300000000007,1.16,1.1381469414261576
13.4350000000007,1.28,1.1388527908951886
13.440000000000701,1.28,1.1390779562483568
13.445000000000702,0.89,1.138922403038851
13.450000000000703,0.89,1.1386950085105934
13.455000000000704,1.3,1.1384565046702348
13.460000000000704,1.3,1.1380163199525737
13.465000000000705,1.05,1.137348029199886
13.470000000000706,1.05,1.1366374727920958
13.475000000000707,1.17,1.1360952195143459
13.480000000000707,1.17,1.1358486719408978
13.485000000000708,1.24,1.1358207329696273
13.490000000000709,1.24,1.1358130729763625
13.49500000000071,0.99,1.135809152342697
13.50000000000071,0.99,1.135934338040403
13.505000000000711,1.37,1.1361404842964897
13.510000000000712,1.37,1.1362164910118062
13.515000000000713,0.95,1.136153544591967
13.520000000000714,0.95,1.1361922700830187
13.525000000000714,1.09,1.1364710470271622
13.530000000000715,1.09,1.136916185541344
13.535000000000716,1.37,1.1373392490666057
13.540000000000717,1.37,1.13757363593906
13.545000000000718,0.81,1.1377356717000229
13.550000000000718,0.81,1.1381328620665878
13.55500000000072,1.29,1.1388128748725979
13.56000000000072,1.29,1.1395640012840134
13.56500000000072,1.17,1.1402693680669471
13.570000000000721,1.17,1.140988798852775
13.575000000000722,0.94,1.1418375367621973
13.580000000000723,0.94,1.1428539911533875
13.585000000000724,1.34,1.1439117447254417
13.590000000000725,1.34,1.1448421332977667
13.595000000000725,1.01,1.1456771891362845
13.600000000000726,1.01,1.1465779559822245
13.605000000000727,1.33,1.1475016537666805
13.610000000000728,1.33,1.148222173752145
13.615000000000729,1.09,1.1487009275106395
13.62000000000073,1.09,1.149127179730208
13.62500000000073,1.03,1.1496042424574613
13.63000000000073,1.03,1.1500704158268609
13.635000000000732,1.5,1.150362761240037
13.640000000000732,1.5,1.1503062282939724
13.645000000000733,0.86,1.150006067886766
13.650000000000734,0.86,1.1497848514464044
13.655000000000735,1.2,1.1496764974752545
13.660000000000736,1.2,1.1494284909205092
13.665000000000736,1.27,1.148947157435445
13.670000000000737,1.27,1.1483264801645496
13.675000000000738,0.92,1.147640720589951
13.680000000000739,0.92,1.1469686433210207
13.68500000000074,1.36,1.1463901621729105
13.69000000000074,1.36,1.1458842628428558
13.695000000000741,0.96,1.1453907919833695
13.700000000000742,0.96,1.144899531849599
13.705000000000743,1.3,1.1443462908224349
13.710000000000743,1.3,1.1436073832773954
13.715000000000744,1.06,1.1427668348822277
13.720000000000745,1.06,1.142061829194364
13.725000000000746,1.05,1.1415361389009004
13.730000000000746,1.05,1.141093843530413
13.735000000000747,1.47,1.1406628781655124
13.740000000000748,1.47,1.1401224659442468
13.745000000000749,0.83,1.139396053273287
13.75000000000075,0.83,1.13859067394685
13.75500000000075,1.33,1.137833860261354
13.760000000000751,1.33,1.1371480311520432
13.765000000000752,1.03,1.1365292382206271
13.770000000000753,1.03,1.135948930665137
13.775000000000754,1.21,1.1353621818406818
13.780000000000754,1.21,1.1348222840716924
13.785000000000755,1.06,1.1344277216503382
13.790000000000756,1.06,1.134140112547856
13.795000000000757,1.05,1.1338156798510786
13.800000000000757,1.05,1.1333967882588547
13.805000000000758,1.41,1.1328910791887916
13.810000000000759,1.41,1.1322794942742416
13.81500000000076,0.84,1.1316519118697148
13.82000000000076,0.84,1.1311933996297054
13.825000000000761,1.26,1.1309473649578559
13.830000000000762,1.26,1.1308492344621295
13.835000000000763,1.07,1.1308438696364351
13.840000000000764,1.07,1.1308203352302746
13.845000000000764,1.15,1.1307327230894568
13.850000000000765,1.15,1.1307227547453718
13.855000000000766,1.23,1.1308737432789695
13.860000000000767,1.23,1.1310833725201517
13.865000000000768,0.99,1.131288888837418
13.870000000000768,0.99,1.1315321742510043
13.87500000000077,1.34,1.1317650605689495
13.88000000000077,1.34,1.1318793817156132
13.88500000000077,0.87,1.131961278983491
13.890000000000772,0.87,1.1322213463766857
13.895000000000772,1.19,1.1327196922506946
13.900000000000773,1.19,1.1333821795468668
13.905000000000774,1.3,1.1340590498471916
13.910000000000775,1.3,1.1345656198119682
13.915000000000775,0.89,1.1349915282670475
13.920000000000776,0.89,1.1356717248910646
13.925000000000777,1.29,1.1366923733291845
13.930000000000778,1.29,1.1378869984255733
13.935000000000779,1.06,1.1392353883761621
13.94000000000078,1.06,1.1408590621165053
13.94500000000078,1.15,1.1427577376905984
13.95000000000078,1.15,1.1448749335790562
13.955000000000782,1.19,1.147430756498702
13.960000000000782,1.19,1.1508459741505421
13.965000000000783,0.99,1.1556118760343976
13.970000000000784,0.99,1.1622459573035995
13.975000000000785,1.44,1.1712075265428452
13.980000000000786,1.44,1.1827700256168756
13.985000000000786,0.94,1.196987369050324
13.990000000000787,0.94,1.2137105000525024
13.995000000000788,1.13,1.2323610919833299
14.000000000000789,1.13,1.2521119594616472
14.00500000000079,1.43,1.2723975859752013
14.01000000000079,1.43,1.2928671046914837
14.015000000000791,0.8,1.3131534373538114
14.020000000000792,0.8,1.3330593254764613
14.025000000000793,1.37,1.3527327149573474
14.030000000000793,1.37,1.3723867326649155
14.035000000000794,1.02,1.3921164271348516
14.040000000000795,1.02,1.411990768362004
14.045000000000796,2.0,1.4320576263278757
14.050000000000797,2.0,1.4522933731438314
14.055000000000797,1.63,1.4724882817910043
14.060000000000798,1.63,1.492341712658365
14.065000000000799,1.94,1.5117207862317146
14.0700000000008,1.94,1.5306299896958226
14.0750000000008,1.6,1.548926612445013
14.080000000000801,1.6,1.5660995631399677
14.085000000000802,1.25,1.5814822579326722
14.090000000000803,1.25,1.5946250594501679
14.095000000000804,1.83,1.6053905560254924
14.100000000000804,1.83,1.6137697103261284
14.105000000000805,1.39,1.6196098217237234
14.110000000000806,1.39,1.6227962498083606
14.115000000000807,2.0,1.623792699120167
14.120000000000807,2.0,1.6236610943777172
14.125000000000808,1.62,1.623904859024899
14.130000000000809,1.62,1.6260120301093022
14.13500000000081,1.63,1.6306711676790795
14.14000000000081,1.63,1.637793840564764
14.145000000000811,1.0,1.6468764463529808
14.150000000000812,1.0,1.657369696557494
14.155000000000813,1.85,1.6692101022671486
14.160000000000814,1.85,1.682514788215427
14.165000000000814,3.52,1.6970558556788313
14.170000000000815,3.52,1.7123643537160227
14.175000000000816,1.47,1.7278358552348823
14.180000000000817,1.47,1.7429805207443134
14.185000000000818,2.79,1.7577195004814978
14.190000000000818,2.79,1.7722522508102672
14.19500000000082,1.35,1.7864300425779633
14.20000000000082,1.35,1.7995622925341213
14.20500000000082,2.84,1.81076835888933
14.210000000000822,2.84,1.819563851002522
14.215000000000822,2.21,1.825887410153192
14.220000000000823,2.21,1.830048934675227
14.225000000000824,0.92,1.8326740862147697
14.230000000000825,0.92,1.8343973672634575
14.235000000000825,0.65,1.8366024489785455
14.240000000000826,0.65,1.8410348622310821
14.245000000000827,2.08,1.8484610547336666
14.250000000000828,2.08,1.8591758500614073
14.255000000000829,3.24,1.8739184840409262
