time,voltage,lowess
0.005,0.0,-0.0019006408317449638
0.01,0.0,-0.0018413594349355974
0.015,-0.01,-0.0018320573517872556
0.02,-0.01,-0.0018858022825600771
0.025,-0.01,-0.002007434358881914
0.030000000000000002,-0.01,-0.0021883727781135476
0.035,0.03,-0.002399856212619666
0.04,0.03,-0.002585293015016318
0.045,-0.01,-0.0026782142811269077
0.049999999999999996,-0.01,-0.0026293974777741413
0.05499999999999999,-0.02,-0.003252656373889247
0.05999999999999999,-0.02,-0.00396416704386903
0.06499999999999999,0.02,-0.004761729303271156
0.06999999999999999,0.02,-0.0055939384993042044
0.075,-0.02,-0.0064650749047015805
0.08,-0.02,-0.007337061672809709
0.085,-0.02,-0.008042351418596794
0.09000000000000001,-0.02,-0.008594357324936403
0.09500000000000001,0.01,-0.00906430725579134
0.10000000000000002,0.01,-0.009381629500906099
0.10500000000000002,-0.01,-0.00954411292101493
0.11000000000000003,-0.01,-0.009548271524527077
0.11500000000000003,-0.03,-0.009409303888951809
0.12000000000000004,-0.03,-0.009330086609890556
0.12500000000000003,0.0,-0.009381412702109937
0.13000000000000003,0.0,-0.009388104433193073
0.13500000000000004,-0.0,-0.009264294523354241
0.14000000000000004,-0.0,-0.008993945496861461
0.14500000000000005,-0.02,-0.008643941556685608
0.15000000000000005,-0.02,-0.008406104228363104
0.15500000000000005,-0.01,-0.008275922113242542
0.16000000000000006,-0.01,-0.008137050198834248
0.16500000000000006,0.01,-0.008022075737476547
0.17000000000000007,0.01,-0.007922895075292374
0.17500000000000007,-0.02,-0.007846728305850967
0.18000000000000008,-0.02,-0.007872464156100885
0.18500000000000008,-0.02,-0.007880008618960007
0.19000000000000009,-0.02,-0.007774304710357619
0.1950000000000001,0.02,-0.007668703966185699
0.2000000000000001,0.02,-0.00761088563191918
0.2050000000000001,-0.02,-0.007617845289236559
0.2100000000000001,-0.02,-0.0076767720181982295
0.2150000000000001,-0.02,-0.00759692330631762
0.2200000000000001,-0.02,-0.007363272572726692
0.22500000000000012,0.02,-0.007208004473464655
0.23000000000000012,0.02,-0.007243334553406805
0.23500000000000013,-0.02,-0.007531819303067699
0.24000000000000013,-0.02,-0.008033861040700831
0.24500000000000013,-0.02,-0.008538379554673792
0.2500000000000001,-0.02,-0.00903221514568343
0.2550000000000001,0.02,-0.009612810899627606
0.2600000000000001,0.02,-0.010215774385576783
0.2650000000000001,-0.02,-0.010827832569289474
0.27000000000000013,-0.02,-0.011439154739035309
0.27500000000000013,-0.03,-0.011977925103675837
0.28000000000000014,-0.03,-0.012551958856638106
0.28500000000000014,0.0,-0.013213004306113505
0.29000000000000015,0.0,-0.01378201332998367
0.29500000000000015,-0.01,-0.014162371447950068
0.30000000000000016,-0.01,-0.01432518142721655
0.30500000000000016,-0.03,-0.014307152373244007
0.31000000000000016,-0.03,-0.0143236822717615
0.31500000000000017,-0.01,-0.014424838557513888
0.3200000000000002,-0.01,-0.014447162898960513
0.3250000000000002,0.0,-0.014331523577857186
0.3300000000000002,0.0,-0.014046700163003863
0.3350000000000002,-0.03,-0.013626900865292071
0.3400000000000002,-0.03,-0.013221940553422252
0.3450000000000002,-0.02,-0.012789788489902806
0.3500000000000002,-0.02,-0.012239038192404175
0.3550000000000002,0.01,-0.011650854905083417
0.3600000000000002,0.01,-0.011047975782066823
0.3650000000000002,-0.02,-0.010448771561382634
0.3700000000000002,-0.02,-0.009906888438947884
0.3750000000000002,-0.02,-0.009304592319413107
0.3800000000000002,-0.02,-0.00863253107153244
0.38500000000000023,0.02,-0.008101316111303491
0.39000000000000024,0.02,-0.007785663258184284
0.39500000000000024,-0.02,-0.007680083367345111
0.40000000000000024,-0.02,-0.007714130060625966
0.40500000000000025,-0.02,-0.007632672226176643
0.41000000000000025,-0.02,-0.007419157089484004
0.41500000000000026,0.02,-0.007367787094445735
0.42000000000000026,0.02,-0.007632979042911996
0.42500000000000027,-0.02,-0.008240909397777779
0.43000000000000027,-0.02,-0.009068536918719328
0.4350000000000003,-0.02,-0.009782839744882005
0.4400000000000003,-0.02,-0.010314116093940102
0.4450000000000003,0.02,-0.010852770493423128
0.4500000000000003,0.02,-0.01145278319799656
0.4550000000000003,-0.03,-0.012144179373613069
0.4600000000000003,-0.03,-0.012887799300253076
0.4650000000000003,-0.03,-0.013488215258832802
0.4700000000000003,-0.03,-0.013953406361040702
0.4750000000000003,0.01,-0.014384458154456346
0.4800000000000003,0.01,-0.014694334817335744
0.4850000000000003,-0.02,-0.014842227913688126
0.4900000000000003,-0.02,-0.014824642771369363
0.49500000000000033,-0.03,-0.01463447818315174
0.5000000000000003,-0.03,-0.014469477946117994
0.5050000000000003,-0.0,-0.014466159687364293
0.5100000000000003,-0.0,-0.014496401472174994
0.5150000000000003,-0.01,-0.014498817757132187
0.5200000000000004,-0.01,-0.014448968212187226
0.5250000000000004,-0.03,-0.014344543995034917
0.5300000000000004,-0.03,-0.014341180706729347
0.5350000000000004,-0.01,-0.014435325363501034
0.5400000000000004,-0.01,-0.014452207426560048
0.5450000000000004,0.0,-0.014333802873634756
0.5500000000000004,0.0,-0.014047633578469379
0.5550000000000004,-0.03,-0.013627208604247633
0.5600000000000004,-0.03,-0.013222080949955577
0.5650000000000004,-0.02,-0.012789888845904972
0.5700000000000004,-0.02,-0.012239146388697084
0.5750000000000004,0.01,-0.011651013791058007
0.5800000000000004,0.01,-0.011048223932976777
0.5850000000000004,-0.02,-0.010449192418510172
0.5900000000000004,-0.02,-0.009907703783177567
0.5950000000000004,-0.02,-0.009306517163616019
0.6000000000000004,-0.02,-0.008636779822588474
0.6050000000000004,0.02,-0.00810871670957241
0.6100000000000004,0.02,-0.007796403814959377
0.6150000000000004,-0.02,-0.007694014912928631
0.6200000000000004,-0.02,-0.007744856073077412
0.6250000000000004,-0.02,-0.007744856072980615
0.6300000000000004,-0.02,-0.007694014912491941
0.6350000000000005,0.02,-0.007796403813859754
0.6400000000000005,0.02,-0.008108716706525108
0.6450000000000005,-0.02,-0.008636779812783164
0.6500000000000005,-0.02,-0.009306517138227858
0.6550000000000005,-0.02,-0.009907703721040396
0.6600000000000005,-0.02,-0.010449192264633408
0.6650000000000005,0.01,-0.011048223624561569
0.6700000000000005,0.01,-0.011651013201258924
0.6750000000000005,-0.02,-0.012239144783793808
0.6800000000000005,-0.02,-0.012789884697842601
0.6850000000000005,-0.03,-0.013222073158429624
0.6900000000000005,-0.03,-0.01362719393923861
0.6950000000000005,0.0,-0.014047597835163846
0.7000000000000005,0.0,-0.014333712116593653
0.7050000000000005,-0.01,-0.014451934544178703
0.7100000000000005,-0.01,-0.014434577096311246
0.7150000000000005,-0.03,-0.01433976812310196
0.7200000000000005,-0.03,-0.014342189664912759
0.7250000000000005,-0.01,-0.014443725620059291
0.7300000000000005,-0.01,-0.014487483163221465
0.7350000000000005,-0.0,-0.014476687791059959
0.7400000000000005,-0.0,-0.014419339434206759
0.7450000000000006,-0.03,-0.014312447389595856
0.7500000000000006,-0.03,-0.014239961959247106
0.7550000000000006,-0.02,-0.014101646843138561
0.7600000000000006,-0.02,-0.0137717503115989
0.7650000000000006,0.01,-0.01332336479260989
0.7700000000000006,0.01,-0.012793855491581275
0.7750000000000006,-0.03,-0.012226453050494558
0.7800000000000006,-0.03,-0.011694982500490208
0.7850000000000006,-0.02,-0.011079784431157017
0.7900000000000006,-0.02,-0.010368731564437912
0.7950000000000006,0.02,-0.009815557507127726
0.8000000000000006,0.02,-0.009522983042642149
0.8050000000000006,-0.02,-0.009451618012617116
0.8100000000000006,-0.02,-0.009509182605308595
0.8150000000000006,-0.02,-0.009491678455379337
0.8200000000000006,-0.02,-0.009451281914388597
0.8250000000000006,0.02,-0.009687570979211071
0.8300000000000006,0.02,-0.010271578554968972
0.8350000000000006,-0.03,-0.011134009309163822
0.8400000000000006,-0.03,-0.012139006839947203
0.8450000000000006,-0.02,-0.013011132464622412
0.8500000000000006,-0.02,-0.013698045645168503
0.8550000000000006,0.01,-0.014289881244062403
0.8600000000000007,0.01,-0.014736867792994579
0.8650000000000007,-0.03,-0.015049974935697982
0.8700000000000007,-0.03,-0.015261560462604856
0.8750000000000007,-0.03,-0.015351412585632964
0.8800000000000007,-0.03,-0.015456478509221591
0.8850000000000007,0.0,-0.015631681844519327
0.8900000000000007,0.0,-0.015654574270199832
0.8950000000000007,-0.01,-0.015369157256165621
0.9000000000000007,-0.01,-0.01478251334513748
0.9050000000000007,-0.03,-0.014052170708886112
0.9100000000000007,-0.03,-0.013489514313987453
0.9150000000000007,-0.01,-0.013190715152739318
0.9200000000000007,-0.01,-0.012972101430165008
0.9250000000000007,0.0,-0.0127175209298975
0.9300000000000007,0.0,-0.012362731576688076
0.9350000000000007,-0.02,-0.011917553040963638
0.9400000000000007,-0.02,-0.011511105759268067
0.9450000000000007,-0.02,-0.011104238801317928
0.9500000000000007,-0.02,-0.010627890014984584
0.9550000000000007,0.01,-0.010181319714664716
0.9600000000000007,0.01,-0.00981566867892652
0.9650000000000007,-0.02,-0.009609178702392814
0.9700000000000008,-0.02,-0.009626714864056248
0.9750000000000008,-0.02,-0.009657674532890266
0.9800000000000008,-0.02,-0.00955819645270282
0.9850000000000008,0.02,-0.009438595469066639
0.9900000000000008,0.02,-0.00939712937907111
0.9950000000000008,-0.02,-0.009550018032893836
1.0000000000000007,-0.02,-0.009910076482274167
1.0050000000000006,-0.03,-0.010252713521924582
1.0100000000000005,-0.03,-0.010532248566150492
1.0150000000000003,0.02,-0.010898444228603539
1.0200000000000002,0.02,-0.01135662362428449
1.0250000000000001,-0.02,-0.011884873492602612
1.03,-0.02,-0.012405314730025771
1.035,-0.03,-0.012732190505057257
1.0399999999999998,-0.03,-0.01293067043232658
1.0449999999999997,0.01,-0.013181202906020215
1.0499999999999996,0.01,-0.013476383041218197
1.0549999999999995,-0.02,-0.013810695553018835
1.0599999999999994,-0.02,-0.014090698286070865
1.0649999999999993,-0.03,-0.014118068709374097
1.0699999999999992,-0.03,-0.013957810853541915
1.074999999999999,0.0,-0.013742924282076699
1.079999999999999,0.0,-0.013455297075389443
1.0849999999999989,-0.01,-0.013158831786879415
1.0899999999999987,-0.01,-0.012864879548334915
1.0949999999999986,-0.03,-0.012514272141912626
1.0999999999999985,-0.03,-0.012205389261644018
1.1049999999999984,-0.0,-0.011946834205957713
1.1099999999999983,-0.0,-0.011611609712392513
1.1149999999999982,-0.0,-0.011208302569826818
1.119999999999998,-0.0,-0.010763468974327069
1.124999999999998,-0.03,-0.010336984047519517
1.129999999999998,-0.03,-0.01007731699775589
1.1349999999999978,-0.01,-0.009915154909153094
1.1399999999999977,-0.01,-0.009701945571340412
1.1449999999999976,0.01,-0.009455413975345633
1.1499999999999975,0.01,-0.009151937437158763
1.1549999999999974,-0.02,-0.008797931695476264
1.1599999999999973,-0.02,-0.008504363769087392
1.1649999999999971,-0.02,-0.00821100004637006
1.169999999999997,-0.02,-0.007870630231427407
1.174999999999997,0.02,-0.007562327101537427
1.1799999999999968,0.02,-0.007264125808174735
1.1849999999999967,-0.02,-0.007033067086548231
1.1899999999999966,-0.02,-0.00696726027638968
1.1949999999999965,-0.02,-0.006955969183350836
1.1999999999999964,-0.02,-0.006948473058697497
1.2049999999999963,0.02,-0.0069634088965631865
1.2099999999999962,0.02,-0.006926244772835516
1.214999999999996,-0.01,-0.006892978272067525
1.219999999999996,-0.01,-0.006918887420952563
1.2249999999999959,-0.03,-0.00694128484532178
1.2299999999999958,-0.03,-0.007050274984592533
1.2349999999999957,0.01,-0.00727242910190615
1.2399999999999956,0.01,-0.0074200724512481775
1.2449999999999954,-0.0,-0.007410625946243448
1.2499999999999953,-0.0,-0.0072191767088177145
1.2549999999999952,-0.03,-0.0068646592118824495
1.2599999999999951,-0.03,-0.006551297885261283
1.264999999999995,0.0,-0.0063376607247405325
1.269999999999995,0.0,-0.006115370992749837
1.2749999999999948,0.01,-0.005899793241509266
1.2799999999999947,0.01,-0.005657912137891966
1.2849999999999946,-0.02,-0.005392674319372186
1.2899999999999945,-0.02,-0.005250606031377166
1.2949999999999944,-0.01,-0.0051585280822854405
1.2999999999999943,-0.01,-0.004984059485723042
1.3049999999999942,0.02,-0.004759715498786763
1.309999999999994,0.02,-0.0044606438988036125
1.314999999999994,-0.02,-0.0041343485138837476
1.3199999999999938,-0.02,-0.0038964494597762667
1.3249999999999937,-0.02,-0.0036078577478528837
1.3299999999999936,-0.02,-0.003171074364956188
1.3349999999999935,0.03,-0.002653446281746157
1.3399999999999934,0.03,-0.0020384827052903954
1.3449999999999933,-0.01,-0.0013949868182525278
1.3499999999999932,-0.01,-0.0007887715464272237
1.354999999999993,-0.02,-7.050916408211888e-05
1.359999999999993,-0.02,0.0007392564270438616
1.3649999999999929,0.03,0.0014869746348228064
1.3699999999999928,0.03,0.002182381180567328
1.3749999999999927,0.0,0.002763525534452526
1.3799999999999926,0.0,0.0032426528637956834
1.3849999999999925,-0.02,0.0038527337200859177
1.3899999999999924,-0.02,0.0045854166824084224
1.3949999999999922,0.03,0.005314546731777638
1.3999999999999921,0.03,0.006030778806587075
1.404999999999992,0.01,0.006558269261340738
1.409999999999992,0.01,0.006812557457826489
1.4149999999999918,-0.02,0.006913722925196915
1.4199999999999917,-0.02,0.0068479898020785985
1.4249999999999916,0.03,0.006690399547458576
1.4299999999999915,0.03,0.006602894483695872
1.4349999999999914,0.02,0.006494684730003069
1.4399999999999913,0.02,0.006323657820034831
1.4449999999999912,-0.03,0.006140291522563505
1.449999999999991,-0.03,0.005828893213759667
1.454999999999991,0.01,0.005443892862989216
1.4599999999999909,0.01,0.005136095641154074
1.4649999999999908,0.03,0.004849086520529891
1.4699999999999906,0.03,0.0046336084051631496
1.4749999999999905,-0.02,0.004543993833226044
1.4799999999999904,-0.02,0.004428079861103654
1.4849999999999903,0.0,0.00432775773823495
1.4899999999999902,0.0,0.004301405636180288
1.4949999999999901,0.04,0.004204515487027494
1.49999999999999,0.04,0.00407785613412785
1.50499999999999,-0.02,0.0039972388129873365
1.5099999999999898,-0.02,0.0039311250821310205
1.5149999999999897,-0.01,0.004036090061565773
1.5199999999999896,-0.01,0.004335023860787663
1.5249999999999895,0.04,0.004690645731031892
1.5299999999999894,0.04,0.005170166761536948
1.5349999999999893,-0.01,0.0057504067067393186
1.5399999999999892,-0.01,0.006336102036537639
1.544999999999989,-0.01,0.0070508873739942015
1.549999999999989,-0.01,0.007854631962612185
1.5549999999999888,0.04,0.008601013507663806
1.5599999999999887,0.04,0.009360348116691395
1.5649999999999886,0.01,0.010062550220753284
1.5699999999999885,0.01,0.010625341751347796
1.5749999999999884,-0.02,0.011174813745220145
1.5799999999999883,-0.02,0.01163129168321763
1.5849999999999882,0.04,0.011855536056554533
1.589999999999988,0.04,0.01192228105269705
1.594999999999988,0.02,0.011785626075718206
1.5999999999999879,0.02,0.011482011179078325
1.6049999999999878,-0.02,0.011279158346806524
1.6099999999999877,-0.02,0.011221111708122513
1.6149999999999876,0.03,0.011314452979134578
1.6199999999999875,0.03,0.011592655647307522
1.6249999999999873,0.02,0.011788566583833237
1.6299999999999872,0.02,0.011807820119630002
1.6349999999999871,-0.03,0.011838731543799746
1.639999999999987,-0.03,0.011911921054994109
1.644999999999987,0.03,0.012122868568094443
1.6499999999999868,0.03,0.012529880003699808
1.6549999999999867,0.04,0.012860604924634315
1.6599999999999866,0.04,0.013067676243686346
1.6649999999999865,-0.03,0.013349660465372837
1.6699999999999864,-0.03,0.013660656471699095
1.6749999999999863,0.02,0.013948501084183001
1.6799999999999862,0.02,0.014160074362123156
1.684999999999986,0.04,0.014093607645686302
1.689999999999986,0.04,0.013849122012958705
1.6949999999999859,-0.02,0.013655729238129828
1.6999999999999857,-0.02,0.013480850737183095
1.7049999999999856,0.02,0.013362911509993183
1.7099999999999855,0.02,0.01324916845285475
1.7149999999999854,0.04,0.012885700103339157
1.7199999999999853,0.04,0.01231466520018481
1.7249999999999852,-0.01,0.011661859992416063
1.729999999999985,-0.01,0.010908551944638136
1.734999999999985,0.0,0.01020289235158331
1.739999999999985,0.0,0.009581246451376773
1.7449999999999848,0.04,0.008920472795481148
1.7499999999999847,0.04,0.008329703791932293
1.7549999999999846,-0.01,0.00785447494188019
1.7599999999999845,-0.01,0.007403063669465364
1.7649999999999844,-0.01,0.007118523950626799
1.7699999999999843,-0.01,0.007068196390235765
1.7749999999999841,0.04,0.007202890032679157
1.779999999999984,0.04,0.007599649243271758
1.784999999999984,0.0,0.008143750915983298
1.7899999999999838,0.0,0.008700587823375188
1.7949999999999837,-0.02,0.009392042914763872
1.7999999999999836,-0.02,0.010187267175099468
1.8049999999999835,0.04,0.010996016177997546
1.8099999999999834,0.04,0.01189751557379057
1.8149999999999833,0.02,0.01277697036526709
1.8199999999999832,0.02,0.013550937698442482
1.824999999999983,-0.02,0.014338863078874808
1.829999999999983,-0.02,0.015041739714040062
1.8349999999999829,0.04,0.015530353215133118
1.8399999999999828,0.04,0.015828061674629558
1.8449999999999827,0.03,0.015791467087598546
1.8499999999999825,0.03,0.015446454484325817
1.8549999999999824,-0.02,0.015051403387649348
1.8599999999999823,-0.02,0.014634005627215138
1.8649999999999822,0.03,0.014245381642387943
1.8699999999999821,0.03,0.01394827682855174
1.874999999999982,0.03,0.013534112444853037
1.879999999999982,0.03,0.012992912358162408
1.8849999999999818,-0.03,0.0125202276878695
1.8899999999999817,-0.03,0.012104779254356582
1.8949999999999816,0.02,0.011805435156194826
1.8999999999999815,0.02,0.01163698855187004
1.9049999999999814,0.04,0.011350660611643502
1.9099999999999813,0.04,0.010957623266746819
1.9149999999999812,-0.02,0.010618009391289967
1.919999999999981,-0.02,0.010273789127608518
1.924999999999981,0.01,0.00996514830993258
1.9299999999999808,0.01,0.009687598507514451
1.9349999999999807,0.04,0.009249225474167103
1.9399999999999806,0.04,0.008715319675001663
1.9449999999999805,-0.02,0.008218143928960031
1.9499999999999804,-0.02,0.007735131633020756
1.9549999999999803,0.0,0.007410440561002255
1.9599999999999802,0.0,0.007256490983121983
1.96499999999998,0.04,0.007085616464850814
1.96999999999998,0.04,0.0069649071021214565
1.9749999999999799,-0.01,0.006971016178963213
1.9799999999999798,-0.01,0.0070669555381782405
1.9849999999999797,-0.01,0.007368081670761046
1.9899999999999796,-0.01,0.007827870009055092
1.9949999999999795,0.04,0.008305752808906997
1.9999999999999793,0.04,0.008896696474879444
2.0049999999999795,0.0,0.00955698243790758
2.0099999999999794,0.0,0.010159771356264563
2.0149999999999793,-0.01,0.010768735389885077
2.019999999999979,-0.01,0.011329716097664989
2.024999999999979,0.04,0.011794514752122483
2.029999999999979,0.04,0.01229380048482951
2.034999999999979,0.02,0.012747406443282682
2.0399999999999787,0.02,0.013047481891412433
2.0449999999999786,-0.02,0.013193140566822043
2.0499999999999785,-0.02,0.01304331583360866
2.0549999999999784,0.03,0.012635031200090172
2.0599999999999783,0.03,0.01220630308296056
2.064999999999978,0.03,0.011769695200200873
2.069999999999978,0.03,0.011332268351758074
2.074999999999978,-0.02,0.010933159531057135
2.079999999999978,-0.02,0.01042652482318059
2.0849999999999778,0.01,0.009843985063393653
2.0899999999999777,0.01,0.009303446647838758
2.0949999999999775,0.04,0.00874672722832322
2.0999999999999774,0.04,0.00826122570586029
2.1049999999999773,-0.02,0.00792343398097
2.1099999999999772,-0.02,0.0076056308122132476
2.114999999999977,0.0,0.007359016220399067
2.119999999999977,0.0,0.007210255898125163
2.124999999999977,0.04,0.007028665396036259
2.129999999999977,0.04,0.00688502379839269
2.1349999999999767,-0.01,0.006801326661285732
2.1399999999999766,-0.01,0.006697814097928496
2.1449999999999765,-0.01,0.0067144536184506765
2.1499999999999764,-0.01,0.006871988685262869
2.1549999999999763,0.04,0.007098911675678618
2.159999999999976,0.04,0.007517485303410602
2.164999999999976,0.0,0.008064988412961781
2.169999999999976,0.0,0.008595570261560385
2.174999999999976,-0.02,0.009170803247174288
2.1799999999999757,-0.02,0.00972908150317921
2.1849999999999756,0.04,0.010215876410719619
2.1899999999999755,0.04,0.010762164674764594
2.1949999999999754,0.02,0.011277947723159211
2.1999999999999753,0.02,0.011669417565259518
2.204999999999975,-0.02,0.012004454133488097
2.209999999999975,-0.02,0.012167436564966619
2.214999999999975,0.03,0.012103283641134548
2.219999999999975,0.03,0.011927474588846413
2.2249999999999748,0.03,0.011579075848499704
2.2299999999999747,0.03,0.011118242441873769
2.2349999999999746,-0.03,0.010746960921252172
2.2399999999999745,-0.03,0.010416485760266428
2.2449999999999743,0.02,0.010135654874146388
2.2499999999999742,0.02,0.009942295312702541
2.254999999999974,0.03,0.009649943916691363
2.259999999999974,0.03,0.009283169809242731
2.264999999999974,-0.02,0.008995259773244625
2.269999999999974,-0.02,0.008735554590438541
2.2749999999999737,0.01,0.008571068628509274
2.2799999999999736,0.01,0.00853890456058797
2.2849999999999735,0.04,0.008501526584599317
2.2899999999999734,0.04,0.008522230381619079
2.2949999999999733,-0.02,0.008640057882360736
2.299999999999973,-0.02,0.008716842414991847
2.304999999999973,0.0,0.008810106684447889
2.309999999999973,0.0,0.008944941534221736
2.314999999999973,0.04,0.00904198564527962
2.3199999999999728,0.04,0.009230286324638041
2.3249999999999726,-0.0,0.009528521981005353
2.3299999999999725,-0.0,0.009810710257081162
2.3349999999999724,-0.01,0.010141815675502156
2.3399999999999723,-0.01,0.01047933891690796
2.344999999999972,0.04,0.010725835312932034
2.349999999999972,0.04,0.011004072879886083
2.354999999999972,0.01,0.011276214341798907
2.359999999999972,0.01,0.011455583560171735
2.364999999999972,-0.02,0.01167056627470184
2.3699999999999717,-0.02,0.011904727134599889
2.3749999999999716,0.04,0.012115819908410326
2.3799999999999715,0.04,0.012379111062583811
2.3849999999999714,0.02,0.01254166729440187
2.3899999999999713,0.02,0.012528993482437634
2.394999999999971,-0.02,0.012484248876354177
2.399999999999971,-0.02,0.012364940537957806
2.404999999999971,0.03,0.012152030404679635
2.409999999999971,0.03,0.01190786916129529
2.4149999999999707,0.03,0.011464200034292233
2.4199999999999706,0.03,0.010831217264709595
2.4249999999999705,-0.03,0.010225855263703749
2.4299999999999704,-0.03,0.009642409518454407
2.4349999999999703,0.02,0.009144042997084835
2.43999999999997,0.02,0.00880340061259727
2.44499999999997,0.03,0.008424927829720442
2.44999999999997,0.03,0.0080034024325817
2.45499999999997,-0.03,0.007679932959536036
2.4599999999999698,-0.03,0.007407784238866981
2.4649999999999697,0.01,0.007258506041112617
2.4699999999999696,0.01,0.007247348663035659
2.4749999999999694,0.04,0.007169943491930761
2.4799999999999693,0.04,0.007074108690390555
2.4849999999999692,-0.02,0.0070603990367457395
2.489999999999969,-0.02,0.007030160382273164
2.494999999999969,0.0,0.0070378271468845895
2.499999999999969,0.0,0.007072950798650277
2.504999999999969,0.04,0.006985170673855742
2.5099999999999687,0.04,0.0068933785092966
2.5149999999999686,-0.01,0.006917311119615715
2.5199999999999685,-0.01,0.007025217138178527
2.5249999999999684,-0.01,0.007327823369963181
2.5299999999999683,-0.01,0.0077616015508698705
2.534999999999968,0.04,0.00812085117070096
2.539999999999968,0.04,0.008458429028681632
2.544999999999968,-0.0,0.008769688959182835
2.549999999999968,-0.0,0.009014359677268532
2.5549999999999677,-0.01,0.0093811893230847
2.5599999999999676,-0.01,0.009873535000339403
2.5649999999999675,0.04,0.010356938691170377
2.5699999999999674,0.04,0.010850349940587103
2.5749999999999673,0.01,0.011229444951488553
2.579999999999967,0.01,0.011433450204528087
2.584999999999967,-0.02,0.011653738945719404
2.589999999999967,-0.02,0.011892549452346137
2.594999999999967,0.04,0.012108627899960034
2.599999999999967,0.04,0.012376611104136136
2.6049999999999667,0.02,0.012544821161894445
2.6099999999999666,0.02,0.012540614375268712
2.6149999999999665,-0.02,0.012505491950906947
2.6199999999999664,-0.02,0.01239545281577996
2.6249999999999662,0.03,0.012191854919608879
2.629999999999966,0.03,0.011968290310862512
2.634999999999966,0.03,0.01159703278213501
2.639999999999966,0.03,0.011115615465582984
2.644999999999966,-0.03,0.01072629651047638
2.6499999999999657,-0.03,0.010368402573483449
2.6549999999999656,0.02,0.009999005897839875
2.6599999999999655,0.02,0.009617650369545188
2.6649999999999654,0.03,0.009058359071567077
2.6699999999999653,0.03,0.008401424087554232
2.674999999999965,-0.02,0.007863485204099494
2.679999999999965,-0.02,0.007425929441206858
2.684999999999965,0.01,0.007139334087955519
2.689999999999965,0.01,0.007000752666620669
2.6949999999999648,0.03,0.006806859089768818
2.6999999999999647,0.03,0.0065777877886765285
2.7049999999999645,-0.02,0.006383821121757014
2.7099999999999644,-0.02,0.006155521403460722
2.7149999999999643,0.0,0.0060258527699584875
2.7199999999999642,0.0,0.006061522368409791
2.724999999999964,0.04,0.006132123971223025
2.729999999999964,0.04,0.0062720535792075765
2.734999999999964,-0.01,0.006444236287451624
2.739999999999964,-0.01,0.006517599746029773
2.7449999999999637,-0.01,0.006610526069352843
2.7499999999999636,-0.01,0.006756371409544377
2.7549999999999635,0.04,0.006862348322114126
2.7599999999999634,0.04,0.007022171657705994
2.7649999999999633,0.0,0.00721746962866856
2.769999999999963,0.0,0.007390615491025937
2.774999999999963,-0.02,0.0077243567292476075
2.779999999999963,-0.02,0.00821041873800237
2.784999999999963,0.04,0.008708766292373719
2.7899999999999627,0.04,0.009242438082548042
2.7949999999999626,0.01,0.00967664076773247
2.7999999999999625,0.01,0.009943157340343473
2.8049999999999624,-0.02,0.010235826507453066
2.8099999999999623,-0.02,0.01056034041201553
2.814999999999962,0.04,0.010875846832942033
2.819999999999962,0.04,0.011231597639499767
2.824999999999962,0.02,0.011425930358557984
2.829999999999962,0.02,0.011394263208284705
2.8349999999999618,-0.03,0.011335348808498898
2.8399999999999617,-0.03,0.011228932061772865
2.8449999999999616,0.03,0.011054652947426333
2.8499999999999615,0.03,0.010878352094142394
2.8549999999999613,0.03,0.010576800784313327
2.8599999999999612,0.03,0.010198475017220012
2.864999999999961,-0.03,0.009892304077194033
2.869999999999961,-0.03,0.009532435216383013
2.874999999999961,0.02,0.009109551013765543
2.879999999999961,0.02,0.00872767551230652
2.8849999999999607,0.03,0.008374981390281661
2.8899999999999606,0.03,0.008191499983083765
2.8949999999999605,-0.02,0.0082486668187936
2.8999999999999604,-0.02,0.00833973895076967
2.9049999999999603,0.0,0.008421487018679022
2.90999999999996,0.0,0.008507779327118405
2.91499999999996,0.04,0.008573198578566792
2.91999999999996,0.04,0.00881011925122966
2.92499999999996,-0.0,0.009253539936875933
2.9299999999999597,-0.0,0.009692944702691152
2.9349999999999596,-0.01,0.010104331194342574
2.9399999999999595,-0.01,0.010458825775327701
2.9449999999999594,0.04,0.010707252627670838
2.9499999999999593,0.04,0.010986279270706322
2.954999999999959,0.01,0.011256468032819418
2.959999999999959,0.01,0.011428503407765047
2.964999999999959,-0.02,0.011632302925418348
2.969999999999959,-0.02,0.011837087836509014
2.974999999999959,0.04,0.011936750723482537
2.9799999999999587,0.04,0.011963511636970486
2.9849999999999586,0.02,0.011804783596906685
2.9899999999999585,0.02,0.011478344410815647
2.9949999999999584,-0.02,0.011254965475042454
2.9999999999999583,-0.02,0.01116300880349778
3.004999999999958,0.03,0.011149650223097909
3.009999999999958,0.03,0.011214123243317919
3.014999999999958,0.02,0.011148714775606096
3.019999999999958,0.02,0.010946415250238121
3.0249999999999577,-0.03,0.01085883676028309
3.0299999999999576,-0.03,0.01090208439736069
3.0349999999999575,0.03,0.011050471504261705
3.0399999999999574,0.03,0.01127400139394049
3.0449999999999573,0.03,0.011333330654030383
3.049999999999957,0.03,0.011231950328207051
3.054999999999957,-0.02,0.011160008866452015
3.059999999999957,-0.02,0.011071871861383309
3.064999999999957,0.02,0.010970919649568922
3.0699999999999568,0.02,0.010871227190220423
3.0749999999999567,0.03,0.010575649299016047
3.0799999999999566,0.03,0.010111200594743477
3.0849999999999564,-0.02,0.0096467871417939
3.0899999999999563,-0.02,0.009169897079203716
3.0949999999999562,0.01,0.00880748535988022
3.099999999999956,0.01,0.008641200818677293
3.104999999999956,0.04,0.008542464314168462
3.109999999999956,0.04,0.008546179061537295
3.114999999999956,-0.02,0.00865612885964378
3.1199999999999557,-0.02,0.008725502497132855
3.1249999999999556,-0.0,0.00881137173192689
3.1299999999999555,-0.0,0.008937455067433391
3.1349999999999554,0.04,0.00902609473551585
3.1399999999999553,0.04,0.00920662998506777
3.144999999999955,-0.0,0.009492229401136804
3.149999999999955,-0.0,0.009738821595009908
3.154999999999955,-0.01,0.0099598986160811
3.159999999999955,-0.01,0.010077819127913336
3.1649999999999547,0.04,0.010022389071704798
3.1699999999999546,0.04,0.009963373030056573
3.1749999999999545,0.01,0.009878449554553827
3.1799999999999544,0.01,0.009665363961482895
3.1849999999999543,-0.02,0.009410496667732585
3.189999999999954,-0.02,0.009073871527807191
3.194999999999954,0.03,0.008623509508310168
3.199999999999954,0.03,0.008181780195311728
3.204999999999954,0.02,0.007718301392356485
3.209999999999954,0.02,0.007267704077594104
3.2149999999999537,-0.03,0.006975465413432996
3.2199999999999536,-0.03,0.006744296532336634
3.2249999999999535,0.02,0.006512474077764796
3.2299999999999534,0.02,0.006326859547049671
3.2349999999999532,0.02,0.006071308055038903
3.239999999999953,0.02,0.005789552090170306
3.244999999999953,-0.02,0.005628277901919688
3.249999999999953,-0.02,0.005520482054972968
3.254999999999953,0.01,0.005506077968135313
3.2599999999999527,0.01,0.005617144794761453
3.2649999999999526,0.03,0.005639068770787207
3.2699999999999525,0.03,0.0055562923734629645
3.2749999999999524,-0.02,0.005486695400869559
3.2799999999999523,-0.02,0.005407443056432702
3.284999999999952,0.0,0.0054400438777543175
3.289999999999952,0.0,0.005633408045583201
3.294999999999952,0.04,0.005788261360114172
3.299999999999952,0.04,0.005879471357381092
3.3049999999999518,-0.02,0.005939846079107146
3.3099999999999516,-0.02,0.005939628771532632
3.3149999999999515,-0.0,0.00605326681877671
3.3199999999999514,-0.0,0.006305700119670134
3.3249999999999513,0.04,0.006497671095684076
3.329999999999951,0.04,0.006630319315761262
3.334999999999951,-0.01,0.006683953114888571
3.339999999999951,-0.01,0.006616619764034702
3.344999999999951,-0.01,0.006634425110253929
3.349999999999951,-0.01,0.006759361779638612
3.3549999999999507,0.04,0.0068545360532779095
3.3599999999999506,0.04,0.007003276632471633
3.3649999999999505,0.0,0.0071861396960606954
3.3699999999999504,0.0,0.007330325675186203
3.3749999999999503,-0.02,0.007567022981755639
3.37999999999995,-0.02,0.007854793618641751
3.38499999999995,0.04,0.00807906295281693
3.38999999999995,0.04,0.008323214513143336
3.39499999999995,0.01,0.008542990078699624
3.3999999999999497,0.01,0.008736838776068444
3.4049999999999496,-0.02,0.009097417824697902
3.4099999999999495,-0.02,0.00955014460976528
3.4149999999999494,0.03,0.00990847947509905
3.4199999999999493,0.03,0.010137399661040877
3.424999999999949,0.02,0.010095801908671272
3.429999999999949,0.02,0.009824842921024445
3.434999999999949,-0.02,0.009596911147416376
3.439999999999949,-0.02,0.009438647756056719
3.4449999999999488,0.03,0.009343634614011342
3.4499999999999487,0.03,0.009342864864851601
3.4549999999999486,0.02,0.009227570206341934
3.4599999999999485,0.02,0.00892899756011342
3.4649999999999483,-0.03,0.00854523625245161
3.4699999999999482,-0.03,0.008044780228567309
3.474999999999948,0.02,0.007555488458782227
3.479999999999948,0.02,0.007212263285420747
3.484999999999948,0.03,0.006882801198250759
3.489999999999948,0.03,0.006569784138648778
3.4949999999999477,-0.02,0.006309900588432639
3.4999999999999476,-0.02,0.005941211779134792
3.5049999999999475,0.0,0.005505867588300259
3.5099999999999474,0.0,0.005100853865287216
3.5149999999999473,0.04,0.0046538697199797014
3.519999999999947,0.04,0.004274028954286895
3.524999999999947,-0.02,0.004070928582224728
3.529999999999947,-0.02,0.003969406435914243
3.534999999999947,-0.01,0.004058877512626675
3.5399999999999467,-0.01,0.004342499797346636
3.5449999999999466,0.04,0.0046850505104110065
3.5499999999999465,0.04,0.005153857412272977
3.5549999999999464,-0.01,0.005720731522134899
3.5599999999999463,-0.01,0.006273781156528355
3.564999999999946,-0.01,0.006885287709316415
3.569999999999946,-0.01,0.007481737916037468
3.574999999999946,0.04,0.007943591947702716
3.579999999999946,0.04,0.008395094442044039
3.584999999999946,0.01,0.008826741319485085
3.5899999999999457,0.01,0.009196854063003619
3.5949999999999456,-0.02,0.009633569164762771
3.5999999999999455,-0.02,0.010032617352263384
3.6049999999999454,0.03,0.010232313536711309
3.6099999999999453,0.03,0.010306142539607547
3.614999999999945,0.02,0.010245434271441077
3.619999999999945,0.02,0.010105786929554042
3.624999999999945,-0.02,0.010092815815653957
3.629999999999945,-0.02,0.010173042006790868
3.6349999999999447,0.03,0.010282064081723871
3.6399999999999446,0.03,0.010418317088981117
3.6449999999999445,0.02,0.010385556042837918
3.6499999999999444,0.02,0.01015997806304791
3.6549999999999443,-0.02,0.009917777787770088
3.659999999999944,-0.02,0.009659315941005622
3.664999999999944,0.02,0.009424645740624694
3.669999999999944,0.02,0.009241929513778786
3.674999999999944,0.03,0.008929650156314708
3.6799999999999438,0.03,0.008507426200707113
3.6849999999999437,-0.02,0.008114205703918218
3.6899999999999435,-0.02,0.0076967794100417375
3.6949999999999434,0.01,0.007330757672414012
3.6999999999999433,0.01,0.007097666328719843
3.7049999999999432,0.03,0.00686353992876652
3.709999999999943,0.03,0.006654908804628341
3.714999999999943,-0.02,0.00657447113954675
3.719999999999943,-0.02,0.006587871279561047
3.724999999999943,0.0,0.006789796906883487
3.7299999999999427,0.0,0.0071568810596732875
3.7349999999999426,0.04,0.0074288431265993006
3.7399999999999425,0.04,0.007583313415367469
3.7449999999999424,-0.01,0.007674477426334201
3.7499999999999423,-0.01,0.007684183658485256
3.754999999999942,-0.0,0.0077790477941228715
3.759999999999942,-0.0,0.007988359140520963
3.764999999999942,0.04,0.00817382440956839
3.769999999999942,0.04,0.008366712506402998
3.7749999999999417,-0.01,0.008499711475393993
3.7799999999999416,-0.01,0.008476835171538131
3.7849999999999415,-0.01,0.008453142822347501
3.7899999999999414,-0.01,0.008463054026801814
3.7949999999999413,0.04,0.008477054183571637
3.799999999999941,0.04,0.008642232103572609
3.804999999999941,0.01,0.008930379467585585
3.809999999999941,0.01,0.009250307500584256
3.814999999999941,-0.02,0.009668411796318596
3.8199999999999408,-0.02,0.01005595282718179
3.8249999999999407,0.03,0.010246542485793179
3.8299999999999406,0.03,0.010314225921169902
3.8349999999999405,0.02,0.010249670227979332
3.8399999999999403,0.02,0.010107653147730416
3.8449999999999402,-0.02,0.010093702013997964
3.84999999999994,-0.02,0.010173611300920362
3.85499999999994,0.03,0.010282398429322848
3.85999999999994,0.03,0.01041846226735079
3.86499999999994,0.02,0.010385596959924682
3.8699999999999397,0.02,0.010159952866088137
3.8749999999999396,-0.02,0.009917697423325093
3.8799999999999395,-0.02,0.009659182653022532
3.8849999999999394,0.02,0.009424412471736938
3.8899999999999393,0.02,0.009241458592791699
3.894999999999939,0.03,0.0089285433078735
3.899999999999939,0.03,0.008504877683240259
3.904999999999939,-0.02,0.008109717408310211
3.909999999999939,-0.02,0.007689908389373405
3.9149999999999388,0.01,0.007318217425802622
3.9199999999999386,0.01,0.007074154583560871
3.9249999999999385,0.03,0.006826635887192655
3.9299999999999384,0.03,0.00658737657229317
3.9349999999999383,-0.02,0.0063933884543318185
3.939999999999938,-0.02,0.00616596548572268
3.944999999999938,0.0,0.006039796510305992
3.949999999999938,0.0,0.006083469548839603
3.954999999999938,0.04,0.006164694721907518
3.959999999999938,0.04,0.006329301955422219
3.9649999999999377,-0.01,0.006594054083868819
3.9699999999999376,-0.01,0.006868408331215939
3.9749999999999375,-0.01,0.007242370153053352
3.9799999999999374,-0.01,0.007662781168189866
3.9849999999999373,0.04,0.007904214794082948
3.989999999999937,0.04,0.007991733932166895
3.994999999999937,-0.0,0.007958064914347859
3.999999999999937,-0.0,0.007827829112665302
4.004999999999937,-0.01,0.007854506131365662
4.009999999999937,-0.01,0.008084189729503524
4.014999999999937,0.04,0.008398347601295637
4.0199999999999365,0.04,0.008807020244676758
4.024999999999936,0.0,0.009156608018916752
4.029999999999936,0.0,0.0093575135950178
4.034999999999936,-0.02,0.00960192535446094
4.039999999999936,-0.02,0.009918982878116796
4.044999999999936,0.04,0.010292657657893776
4.049999999999936,0.04,0.01081039477053877
4.054999999999936,0.02,0.011319646727125111
4.059999999999936,0.02,0.011714147118174804
4.0649999999999356,-0.02,0.012060503127268021
4.0699999999999354,-0.02,0.012250172072763283
4.074999999999935,0.03,0.012278287212019906
4.079999999999935,0.03,0.012301692491654127
4.084999999999935,0.03,0.012232617439885768
4.089999999999935,0.03,0.01204152090378282
4.094999999999935,-0.03,0.011792999319589253
4.099999999999935,-0.03,0.011372383174434054
4.104999999999935,0.02,0.010849058537069193
4.109999999999935,0.02,0.010363469231644854
4.1149999999999345,0.04,0.009850453050985974
4.119999999999934,0.04,0.00939446691551678
4.124999999999934,-0.02,0.009074519619202717
4.129999999999934,-0.02,0.008727652606529596
4.134999999999934,0.0,0.008347685531334893
4.139999999999934,0.0,0.00794966179523834
4.144999999999934,0.04,0.007464312570781445
4.149999999999934,0.04,0.007066001894555844
4.154999999999934,-0.01,0.006851153490085253
4.1599999999999335,-0.01,0.006704335279301644
4.164999999999933,-0.01,0.006696174207437184
4.169999999999933,-0.01,0.006807873909253275
4.174999999999933,0.04,0.006899126214729697
4.179999999999933,0.04,0.007048717593316563
4.184999999999933,0.0,0.00723555600374411
4.189999999999933,0.0,0.007404621024897947
4.194999999999933,-0.02,0.007741228673085807
4.199999999999933,-0.02,0.00823579434767229
4.204999999999933,0.04,0.008745019784256779
4.2099999999999325,0.04,0.00929829474886757
4.214999999999932,0.01,0.009795268737765445
4.219999999999932,0.01,0.010197991538800211
4.224999999999932,-0.02,0.010693309048628708
4.229999999999932,-0.02,0.011244148210765607
4.234999999999932,0.04,0.011750630994668372
4.239999999999932,0.04,0.012233342555822561
4.244999999999932,0.02,0.012517074340755335
4.249999999999932,0.02,0.012584785420202015
4.2549999999999315,-0.02,0.012694008024653983
4.259999999999931,-0.02,0.012854435179272839
4.264999999999931,0.03,0.01300957247144566
4.269999999999931,0.03,0.01315377278007156
4.274999999999931,0.03,0.013061302808398772
4.279999999999931,0.03,0.01273076541307886
4.284999999999931,-0.03,0.012433112565457155
4.289999999999931,-0.03,0.012215599164678034
4.294999999999931,0.03,0.012134018795808199
4.2999999999999305,0.03,0.012213008246597393
4.30499999999993,0.03,0.012177398460879648
4.30999999999993,0.03,0.01197543165188023
4.31499999999993,-0.03,0.011790846343182592
4.31999999999993,-0.03,0.011624952365910528
4.32499999999993,0.02,0.011539978258813918
4.32999999999993,0.02,0.011538218464072552
4.33499999999993,0.04,0.011412294997204087
4.33999999999993,0.04,0.011218286154813822
4.34499999999993,-0.02,0.011064624892287165
4.3499999999999295,-0.02,0.01080690121668434
4.354999999999929,0.01,0.010461328405789385
4.359999999999929,0.01,0.010071826438013295
4.364999999999929,0.04,0.009570318418149457
4.369999999999929,0.04,0.009115948318464398
4.374999999999929,-0.01,0.008830149798534926
4.379999999999929,-0.01,0.00862915667524754
4.384999999999929,-0.01,0.008571864096655791
4.389999999999929,-0.01,0.008612661552264042
4.3949999999999285,0.04,0.008608019599093518
4.399999999999928,0.04,0.008676850266035705
4.404999999999928,0.0,0.008852428167052328
4.409999999999928,0.0,0.009055411967767072
4.414999999999928,-0.01,0.009407958999911582
4.419999999999928,-0.01,0.009889616901070023
4.424999999999928,0.04,0.010363211537756626
4.429999999999928,0.04,0.010848516146942195
4.434999999999928,0.01,0.011218457923008683
4.439999999999928,0.01,0.0114098780372175
4.4449999999999275,-0.02,0.011616512649507525
4.449999999999927,-0.02,0.011824925678837016
4.454999999999927,0.04,0.011928676673177761
4.459999999999927,0.04,0.011958851165989846
4.464999999999927,0.02,0.011802386656687569
4.469999999999927,0.02,0.011477242577594318
4.474999999999927,-0.02,0.011254365487954563
4.479999999999927,-0.02,0.011162597526813558
4.484999999999927,0.03,0.011149395033532988
4.4899999999999265,0.03,0.011213990099414305
4.494999999999926,0.02,0.01114864746529096
4.499999999999926,0.02,0.010946378620333593
4.504999999999926,-0.03,0.010858810859409731
4.509999999999926,-0.03,0.010902057493837904
4.514999999999926,0.03,0.011050433472588392
4.519999999999926,0.03,0.011273929849186464
4.524999999999926,0.03,0.01133316502579718
4.529999999999926,0.03,0.011231594207271196
4.5349999999999255,-0.02,0.01115941588591174
4.539999999999925,-0.02,0.011070973830114827
4.544999999999925,0.02,0.010969125843678419
4.549999999999925,0.02,0.010867156168679467
4.554999999999925,0.03,0.010567216635790487
4.559999999999925,0.03,0.010095241325226803
4.564999999999925,-0.02,0.009621269679897404
4.569999999999925,-0.02,0.009134793642826943
4.574999999999925,0.01,0.008759408884230343
4.579999999999925,0.01,0.008554806636622015
4.5849999999999245,0.04,0.008329937365615213
4.589999999999924,0.04,0.008083789051482444
4.594999999999924,-0.02,0.007858185094642782
4.599999999999924,-0.02,0.00756988539505053
4.604999999999924,-0.0,0.007334698631100911
4.609999999999924,-0.0,0.007195306687702504
4.614999999999924,0.04,0.007019105728926649
4.619999999999924,0.04,0.0068784517391652705
4.624999999999924,-0.01,0.006797538714325724
4.6299999999999235,-0.01,0.006696144558192812
4.634999999999923,-0.01,0.006713708166058677
4.639999999999923,-0.01,0.0068715839510138
4.644999999999923,0.04,0.0070986602159624134
4.649999999999923,0.04,0.007517315177520065
4.654999999999923,0.0,0.008064889794714411
4.659999999999923,0.0,0.008595528857506186
4.664999999999923,-0.02,0.009170787727686959
4.669999999999923,-0.02,0.009729073518484243
4.6749999999999226,0.04,0.010215871534586444
4.6799999999999224,0.04,0.010762161101821547
4.684999999999922,0.02,0.011277942876442095
4.689999999999922,0.02,0.011669407615544292
4.694999999999922,-0.02,0.01200443667955171
4.699999999999922,-0.02,0.012167409068715617
4.704999999999922,0.03,0.012103235310118437
4.709999999999922,0.03,0.011927381837954344
4.714999999999922,0.03,0.01157888540844031
4.719999999999922,0.03,0.011117865031914899
4.7249999999999215,-0.03,0.010746351538532435
4.729999999999921,-0.03,0.010415565642337775
4.734999999999921,0.02,0.010133815902800443
4.739999999999921,0.02,0.009938204860723391
4.744999999999921,0.03,0.009641565485424284
4.749999999999921,0.03,0.009267263171608966
4.754999999999921,-0.02,0.008969669601288968
4.759999999999921,-0.02,0.008700276761075309
4.764999999999921,0.01,0.008522904127793579
4.7699999999999205,0.01,0.008452514336269812
4.77499999999992,0.04,0.008288843218588908
4.77999999999992,0.04,0.008059337671881555
4.78499999999992,-0.02,0.007841000810330526
4.78999999999992,-0.02,0.0075589458702158725
4.79499999999992,-0.0,0.007328550112789644
4.79999999999992,-0.0,0.007192622057302652
4.80499999999992,0.04,0.007018202576843399
4.80999999999992,0.04,0.006878449986290181
4.81499999999992,-0.01,0.006798812219172042
4.8199999999999195,-0.01,0.006699753658191027
4.824999999999919,-0.01,0.006721757180094599
4.829999999999919,-0.01,0.006887720844890633
4.834999999999919,0.04,0.007124939288771757
4.839999999999919,0.04,0.007553383388340096
4.844999999999919,0.0,0.008115092259416937
4.849999999999919,0.0,0.00868621287165571
4.854999999999919,-0.02,0.009384730737574202
4.859999999999919,-0.02,0.01018280212563463
4.8649999999999185,0.04,0.010993226479343265
4.869999999999918,0.04,0.011895697989170392
4.874999999999918,0.02,0.012775546934418814
4.879999999999918,0.02,0.01354931087881213
4.884999999999918,-0.02,0.014336529357929527
4.889999999999918,-0.02,0.015038275231003411
4.894999999999918,0.04,0.01552510447674365
4.899999999999918,0.04,0.015819486461623577
4.904999999999918,0.03,0.015774224095289866
4.9099999999999175,0.03,0.015412023272130225
4.914999999999917,-0.02,0.014995361710473774
4.919999999999917,-0.02,0.014542476612410342
4.924999999999917,0.03,0.014050248875899096
4.929999999999917,0.03,0.013540668411218999
4.934999999999917,0.03,0.012832787744574367
4.939999999999917,0.03,0.011982845730920814
4.944999999999917,-0.03,0.011251151120950403
4.949999999999917,-0.03,0.010653121600760063
4.954999999999917,0.02,0.010234980203406603
4.9599999999999165,0.02,0.009997739923490914
4.964999999999916,0.03,0.00968977740277304
4.969999999999916,0.03,0.009311669439770475
4.974999999999916,-0.02,0.009013876039379516
4.979999999999916,-0.02,0.00874670780093733
4.984999999999916,0.01,0.008576863755504231
4.989999999999916,0.01,0.008541259960594953
4.994999999999916,0.04,0.008502538060179957
4.999999999999916,0.04,0.008522877638499756
5.0049999999999155,-0.02,0.008640478502281272
5.009999999999915,-0.02,0.008717083170703358
5.014999999999915,-0.0,0.008810230717203316
5.019999999999915,-0.0,0.0089449948181155
5.024999999999915,0.04,0.009042009187299437
5.029999999999915,0.04,0.009230301452780401
5.034999999999915,-0.0,0.00952853313742998
5.039999999999915,-0.0,0.009810721683276282
5.044999999999915,-0.01,0.010141833868818773
5.049999999999915,-0.01,0.01047937223842259
5.0549999999999145,0.04,0.01072588958297378
5.059999999999914,0.04,0.011004157793702648
5.064999999999914,0.01,0.011276390637848193
5.069999999999914,0.01,0.011455960304702192
5.074999999999914,-0.02,0.011671219775701357
5.079999999999914,-0.02,0.011905739420129416
5.084999999999914,0.04,0.012117355338572411
5.089999999999914,0.04,0.012381686135108386
5.094999999999914,0.02,0.012547450109829052
5.0999999999999135,0.02,0.012541746247414491
5.104999999999913,-0.02,0.012505984532414903
5.109999999999913,-0.02,0.01239567091243322
5.114999999999913,0.03,0.012191806374957152
5.119999999999913,0.03,0.01196791418444638
5.124999999999913,0.03,0.011596016979154192
5.129999999999913,0.03,0.011113210580107785
5.134999999999913,-0.03,0.010722086662477558
5.139999999999913,-0.03,0.010362195323897554
5.1449999999999125,0.02,0.009989398053971466
5.149999999999912,0.02,0.009602498891945595
5.154999999999912,0.03,0.009035911474943864
5.159999999999912,0.03,0.008352670313061746
5.164999999999912,-0.02,0.007704478673134654
5.169999999999912,-0.02,0.007033131104700418
5.174999999999912,0.01,0.006449271216947628
5.179999999999912,0.01,0.00604950498434785
5.184999999999912,0.03,0.005704906003969349
5.189999999999912,0.03,0.005437349716777483
5.1949999999999115,-0.02,0.0052606501861344294
5.199999999999911,-0.02,0.005073932723614168
5.204999999999911,-0.01,0.0050459654109298825
5.209999999999911,-0.01,0.00526912725013089
5.214999999999911,0.05,0.005594445538191271
5.219999999999911,0.05,0.006032273341707458
5.224999999999911,-0.01,0.0065255398737062865
5.229999999999911,-0.01,0.006950112613631973
5.234999999999911,-0.01,0.007464835911195929
5.2399999999999105,-0.01,0.008083997487568162
5.24499999999991,0.05,0.008620343543730955
5.24999999999991,0.05,0.00908807983443399
5.25499999999991,0.0,0.009430448865010375
5.25999999999991,0.0,0.009632944499257785
5.26499999999991,-0.02,0.009958067054580895
5.26999999999991,-0.02,0.010419071191695382
5.27499999999991,0.05,0.010903201478085777
5.27999999999991,0.05,0.01149857515611
5.2849999999999095,0.01,0.012118279199283327
5.289999999999909,0.01,0.012696305808565903
5.294999999999909,-0.02,0.013364268176298013
5.299999999999909,-0.02,0.014003114010161275
5.304999999999909,0.04,0.014452593163664356
5.309999999999909,0.04,0.01475880751008809
5.314999999999909,0.03,0.014827156057290555
5.319999999999909,0.03,0.01469847125481912
5.324999999999909,-0.02,0.014582956535946457
5.329999999999909,-0.02,0.01440501028454943
5.3349999999999085,0.03,0.014129206860596766
5.339999999999908,0.03,0.013837809144121728
5.344999999999908,0.03,0.013354002444833939
5.349999999999908,0.03,0.012663976504366192
5.354999999999908,-0.03,0.01197912131866127
5.359999999999908,-0.03,0.011328105633600271
5.364999999999908,0.02,0.01082692030955627
5.369999999999908,0.02,0.010526508091307393
5.374999999999908,0.04,0.010167272582860907
5.3799999999999075,0.04,0.009732214920724774
5.384999999999907,-0.03,0.009370915307527242
5.389999999999907,-0.03,0.009037980989469936
5.394999999999907,0.01,0.008810767696034994
5.399999999999907,0.01,0.008691358359952944
5.404999999999907,0.04,0.008419848436719455
5.409999999999907,0.04,0.008008708981174862
5.414999999999907,-0.02,0.007585589342356687
5.419999999999907,-0.02,0.007137063864094727
5.424999999999907,-0.0,0.0068600422345556295
5.4299999999999065,-0.0,0.006809748025983688
5.434999999999906,0.05,0.006790883680458165
5.439999999999906,0.05,0.006824581940644109
5.444999999999906,-0.02,0.006884417222367391
5.449999999999906,-0.02,0.006868764063453578
5.454999999999906,-0.01,0.00697820726919213
5.459999999999906,-0.01,0.007258150489580375
5.464999999999906,0.05,0.007551210240116546
5.469999999999906,0.05,0.007938469444607141
5.4749999999999055,-0.0,0.008410033002224891
5.479999999999905,-0.0,0.008885091641907112
5.484999999999905,-0.02,0.009494828120728686
5.489999999999905,-0.02,0.010140946062097684
5.494999999999905,0.05,0.010608270261362428
5.499999999999905,0.05,0.010983205159649083
5.504999999999905,0.01,0.01127808596716317
5.509999999999905,0.01,0.01153170712753325
5.514999999999905,-0.02,0.011996864730868233
5.5199999999999045,-0.02,0.012621527832105102
5.524999999999904,0.04,0.013220944059284787
5.529999999999904,0.04,0.013781463676562121
5.534999999999904,0.02,0.014136701391809517
5.539999999999904,0.02,0.014262216048684336
5.544999999999904,-0.02,0.014341016341585189
5.549999999999904,-0.02,0.014345994735082121
5.554999999999904,0.04,0.014348602027460848
5.559999999999904,0.04,0.01450609931016233
5.564999999999904,0.03,0.014634468376286519
5.5699999999999035,0.03,0.014601422141846787
5.574999999999903,-0.03,0.01440139726200803
5.579999999999903,-0.03,0.013893490245191969
5.584999999999903,0.02,0.01315702555971066
5.589999999999903,0.02,0.012354233045633394
5.594999999999903,0.05,0.011426853364268599
5.599999999999903,0.05,0.010502907898426164
5.604999999999903,-0.02,0.009736903041112448
5.609999999999903,-0.02,0.008981549860073547
5.6149999999999025,0.0,0.008226440986499852
5.619999999999902,0.0,0.007492385474588077
5.624999999999902,0.04,0.006670981243719987
5.629999999999902,0.04,0.0058887495856291905
5.634999999999902,-0.02,0.005242373718168297
5.639999999999902,-0.02,0.004673725786054149
5.644999999999902,-0.01,0.004384573893270764
5.649999999999902,-0.01,0.004417542358460046
5.654999999999902,0.05,0.004543700774556962
5.6599999999999016,0.05,0.0047470286080040355
5.6649999999999014,-0.01,0.004970638104811507
5.669999999999901,-0.01,0.005153609333425221
5.674999999999901,-0.02,0.005502313510383687
5.679999999999901,-0.02,0.006001347483074076
5.684999999999901,0.05,0.006486644877419806
5.689999999999901,0.05,0.007050371242531456
5.694999999999901,-0.0,0.0076809805611827995
5.699999999999901,-0.0,0.008354353287658618
5.704999999999901,-0.02,0.009249262373562123
5.7099999999999005,-0.02,0.010273706870029278
5.7149999999999,0.04,0.011232166431997669
5.7199999999999,0.04,0.012163501260221834
5.7249999999999,0.02,0.01298426754125517
5.7299999999999,0.02,0.01370937767250339
5.7349999999999,-0.02,0.014579206617807004
5.7399999999999,-0.02,0.015519160827260778
5.7449999999999,0.04,0.01633316334273595
5.7499999999999,0.04,0.016977251589955434
5.7549999999998995,0.03,0.01726205426734001
5.759999999999899,0.03,0.017203383694736427
5.764999999999899,-0.02,0.017107946772583236
5.769999999999899,-0.02,0.017052667089593455
5.774999999999899,0.04,0.01707901671597564
5.779999999999899,0.04,0.017199821007065536
5.784999999999899,0.03,0.01712910805973805
5.789999999999899,0.03,0.016817601662343848
5.794999999999899,-0.03,0.016509316225598928
5.799999999999899,-0.03,0.01623905556322578
5.8049999999998985,0.03,0.016049605164946988
5.809999999999898,0.03,0.01595034931591338
5.814999999999898,0.04,0.015736945073001066
5.819999999999898,0.04,0.01546386185993522
5.824999999999898,-0.02,0.01527587342467303
5.829999999999898,-0.02,0.015019408229836826
5.834999999999898,0.02,0.014645026258724395
5.839999999999898,0.02,0.014186039460689203
5.844999999999898,0.04,0.013585108249496693
5.8499999999998975,0.04,0.013018735180076128
5.854999999999897,-0.01,0.012672408832453108
5.859999999999897,-0.01,0.012464963762344709
5.864999999999897,0.0,0.01238706336387464
5.869999999999897,0.0,0.012368242699595085
5.874999999999897,0.04,0.012268975603757896
5.879999999999897,0.04,0.012233051759984964
5.884999999999897,-0.0,0.012354199430264867
5.889999999999897,-0.0,0.012546928057408627
5.8949999999998965,-0.0,0.01287040080014305
5.899999999999896,-0.0,0.013283640408490192
5.904999999999896,0.04,0.01365049954666712
5.909999999999896,0.04,0.014005491070038156
5.914999999999896,0.01,0.0142515739151007
5.919999999999896,0.01,0.014311550406075764
5.924999999999896,-0.01,0.014384093535604785
5.929999999999896,-0.01,0.014533876844296825
5.934999999999896,0.04,0.014750778124664554
5.939999999999896,0.04,0.015109571633671548
5.9449999999998955,0.02,0.015450859339248188
5.949999999999895,0.02,0.015672391521689342
5.954999999999895,-0.02,0.015965272363378854
5.959999999999895,-0.02,0.01635587637988737
5.964999999999895,0.04,0.01677122013804906
5.969999999999895,0.04,0.017182587749880362
5.974999999999895,0.03,0.017355197628168645
5.979999999999895,0.03,0.01725092700028563
5.984999999999895,-0.02,0.01712795289821461
5.9899999999998945,-0.02,0.017047498618554934
5.994999999999894,0.04,0.017046997627933675
5.999999999999894,0.04,0.01713299161061532
6.004999999999894,0.03,0.016990310072448424
6.009999999999894,0.03,0.016544919001896148
6.014999999999894,-0.03,0.016047644653791725
6.019999999999894,-0.03,0.015567423922037237
6.024999999999894,0.03,0.015200769972561558
6.029999999999894,0.03,0.014977024963710022
6.034999999999894,0.04,0.014628083124420068
6.0399999999998935,0.04,0.014166168927732661
6.044999999999893,-0.03,0.013816694082133084
6.049999999999893,-0.03,0.013524980482239166
6.054999999999893,0.02,0.013267819005071195
6.059999999999893,0.02,0.013020777488360473
6.064999999999893,0.04,0.012589607208435594
6.069999999999893,0.04,0.012078775536574616
6.074999999999893,-0.02,0.011713197792742254
6.079999999999893,-0.02,0.01145173148437936
6.0849999999998925,0.01,0.011311860101400844
6.089999999999892,0.01,0.01123316321656129
6.094999999999892,0.04,0.011020769242725463
6.099999999999892,0.04,0.010780520725935341
6.104999999999892,-0.01,0.010633669484930008
6.109999999999892,-0.01,0.010509213375831798
6.114999999999892,0.0,0.010483679564863837
6.119999999999892,0.0,0.010555147197447426
6.124999999999892,0.04,0.010653492453286149
6.1299999999998915,0.04,0.010917050941855291
6.134999999999891,0.0,0.011313121887308973
6.139999999999891,0.0,0.01168088595240684
6.144999999999891,-0.01,0.012088739710408691
6.149999999999891,-0.01,0.012537651296727998
6.154999999999891,0.04,0.013005183238932218
6.159999999999891,0.04,0.013621119149331059
6.164999999999891,0.02,0.014287002107017974
6.169999999999891,0.02,0.014883121191092618
6.174999999999891,-0.02,0.015530513741940092
6.1799999999998905,-0.02,0.016183212771099225
6.18499999999989,0.04,0.01673049998688145
6.18999999999989,0.04,0.01719301844791339
6.19499999999989,0.03,0.017429577378902904
6.19999999999989,0.03,0.017445405023030502
6.20499999999989,-0.02,0.01749693971427586
6.20999999999989,-0.02,0.01761417300800023
6.21499999999989,0.04,0.017781465585870612
6.21999999999989,0.04,0.01798160599240055
6.2249999999998895,0.03,0.017949832280137166
6.229999999999889,0.03,0.01766323995914374
6.234999999999889,-0.02,0.01736676421426511
6.239999999999889,-0.02,0.01708763973364941
6.244999999999889,0.03,0.016864514766143448
6.249999999999889,0.03,0.016699395533095532
6.254999999999889,0.04,0.016341795779447253
6.259999999999889,0.04,0.015785041084166125
6.264999999999889,-0.02,0.015168970612345654
6.2699999999998886,-0.02,0.01441835973342221
6.2749999999998884,0.02,0.013599899454493022
6.279999999999888,0.02,0.012801779319030749
6.284999999999888,0.04,0.011910699134525598
6.289999999999888,0.04,0.01100455169010542
6.294999999999888,-0.02,0.010192347409628023
6.299999999999888,-0.02,0.009394430290579911
6.304999999999888,0.0,0.008700620513177834
6.309999999999888,0.0,0.008140772352260418
6.314999999999888,0.04,0.007593472928468204
6.3199999999998875,0.04,0.00719333230042564
6.324999999999887,-0.01,0.0070536419643372535
6.329999999999887,-0.01,0.007096598325046644
6.334999999999887,-0.01,0.007370108943505825
6.339999999999887,-0.01,0.007786511773811618
6.344999999999887,0.04,0.0081361093977637
6.349999999999887,0.04,0.008468456190923483
6.354999999999887,0.0,0.008775375889689989
6.359999999999887,0.0,0.009016808782706484
6.3649999999998865,-0.01,0.009382302322222516
6.369999999999886,-0.01,0.00987425300143042
6.374999999999886,0.04,0.010357472111428305
6.379999999999886,0.04,0.010850803221754966
6.384999999999886,0.01,0.011230004039802568
6.389999999999886,0.01,0.011434419621852768
6.394999999999886,-0.02,0.011655424077870619
6.399999999999886,-0.02,0.011895439633657003
6.404999999999886,0.04,0.01211350764719689
6.409999999999886,0.04,0.012384790440888176
6.4149999999998855,0.02,0.012560721992535972
6.419999999999885,0.02,0.012571361182964725
6.424999999999885,-0.02,0.012554660901109984
6.429999999999885,-0.02,0.012476528700482872
6.434999999999885,0.03,0.012372452647274355
6.439999999999885,0.03,0.012358034298535374
6.444999999999885,0.03,0.012279378712058848
6.449999999999885,0.03,0.012087492031884426
6.454999999999885,-0.03,0.011844679800693739
6.4599999999998845,-0.03,0.011441804233266583
6.464999999999884,0.02,0.010982082404856357
6.469999999999884,0.02,0.01063728706744439
6.474999999999884,0.04,0.010333369977493354
6.479999999999884,0.04,0.010106755786722625
6.484999999999884,-0.02,0.009975476965680368
6.489999999999884,-0.02,0.00976100824556968
6.494999999999884,0.0,0.009517753532842104
6.499999999999884,0.0,0.009314016548050181
6.5049999999998835,0.05,0.009067644693836193
6.509999999999883,0.05,0.00890556725222143
6.514999999999883,-0.01,0.00887364737998659
6.519999999999883,-0.01,0.008843588596255109
6.524999999999883,-0.01,0.008936182017446764
6.529999999999883,-0.01,0.009182284735136083
6.534999999999883,0.05,0.009487863433409377
6.539999999999883,0.05,0.009959025041779859
6.544999999999883,0.0,0.010529635879313659
6.549999999999883,0.0,0.011076969539125948
6.5549999999998825,-0.02,0.011731378062712315
6.559999999999882,-0.02,0.012441515833996468
6.564999999999882,0.05,0.013081476205358837
6.569999999999882,0.05,0.01374975169640046
6.574999999999882,0.02,0.014380520372808943
6.579999999999882,0.02,0.014932821764444453
6.584999999999882,-0.02,0.01554407258204745
6.589999999999882,-0.02,0.01604934481888922
6.594999999999882,0.04,0.016191607421474682
6.5999999999998815,0.04,0.01596427900327338
6.604999999999881,0.03,0.015318065400238712
6.609999999999881,0.03,0.014402859562692908
6.614999999999881,-0.02,0.01357255480102327
6.619999999999881,-0.02,0.012846744979461639
6.624999999999881,0.03,0.012174924982670865
6.629999999999881,0.03,0.011547725762282357
6.634999999999881,0.02,0.010730363772761042
6.639999999999881,0.02,0.009747293120687232
6.644999999999881,-0.03,0.008939329278139382
6.6499999999998805,-0.03,0.008414595024616509
6.65499999999988,0.02,0.008205757565640324
6.65999999999988,0.02,0.008251670392017062
6.66499999999988,0.03,0.008240787777053121
6.66999999999988,0.03,0.00813242515255171
6.67499999999988,-0.03,0.008058030564234259
6.67999999999988,-0.03,0.007946046465526371
6.68499999999988,0.02,0.007841796137338668
6.68999999999988,0.02,0.007803579095145022
6.6949999999998795,0.03,0.0076828203138085095
6.699999999999879,0.03,0.007513188188236531
6.704999999999879,-0.02,0.0073678872501981955
6.709999999999879,-0.02,0.007144949163284908
6.714999999999879,0.0,0.006926659574642407
6.719999999999879,0.0,0.006765596404631938
6.724999999999879,0.04,0.006578967609415344
6.729999999999879,0.04,0.00651653962920886
6.734999999999879,-0.01,0.006677314443004184
6.7399999999998785,-0.01,0.006938417737212353
6.744999999999878,-0.01,0.007324592554607838
6.749999999999878,-0.01,0.00780507046647967
6.754999999999878,0.04,0.008288738696241084
6.759999999999878,0.04,0.008884995795904977
6.764999999999878,0.0,0.009552113565857842
6.769999999999878,0.0,0.01016339443414027
6.774999999999878,-0.01,0.010780691838504866
6.779999999999878,-0.01,0.011350822878652286
6.784999999999878,0.04,0.011826991264399869
6.7899999999998775,0.04,0.012339038501922252
6.794999999999877,0.02,0.012810339173721161
6.799999999999877,0.02,0.013174520715796792
6.804999999999877,-0.02,0.013562619984678639
6.809999999999877,-0.02,0.01389708489928906
6.814999999999877,0.03,0.014083069193572797
6.819999999999877,0.03,0.01417883413063837
6.824999999999877,0.03,0.014066871256600553
6.829999999999877,0.03,0.013753651738838864
6.8349999999998765,-0.02,0.013461432028522756
6.839999999999876,-0.02,0.013206838249395978
6.844999999999876,0.03,0.012991436760717302
6.849999999999876,0.03,0.0128080130859202
6.854999999999876,0.03,0.012411875645674376
6.859999999999876,0.03,0.011790041753697323
6.864999999999876,-0.03,0.01116879798483882
6.869999999999876,-0.03,0.010604687863528077
6.874999999999876,0.02,0.0102029403971899
6.8799999999998755,0.02,0.009976609683471884
6.884999999999875,0.03,0.009671312870871172
6.889999999999875,0.03,0.009289402310508734
6.894999999999875,-0.02,0.008984539918456547
6.899999999999875,-0.02,0.008709320288255223
6.904999999999875,0.01,0.008527591208291718
6.909999999999875,0.01,0.008454364519017795
6.914999999999875,0.04,0.008289571314561468
6.919999999999875,0.04,0.008059729207847243
6.924999999999875,-0.02,0.0078411390758973
6.9299999999998745,-0.02,0.007558796438979483
6.934999999999874,0.0,0.0073278975725308455
6.939999999999874,0.0,0.0071910392139778396
6.944999999999874,0.04,0.007015476911895689
6.949999999999874,0.04,0.006874234139801651
6.954999999999874,-0.01,0.006791056543617934
6.959999999999874,-0.01,0.0066843178416913195
6.964999999999874,-0.01,0.006691293013518641
6.969999999999874,-0.01,0.006830335400005239
6.9749999999998735,0.04,0.007033772087636382
6.979999999999873,0.04,0.007420110126701131
6.984999999999873,0.0,0.007886071866308386
6.989999999999873,0.0,0.008231752468684558
6.994999999999873,-0.02,0.00846644736748616
6.999999999999873,-0.02,0.008542369010525446
7.004999999999873,0.04,0.008505773775646867
7.009999999999873,0.04,0.0085759321425392
7.014999999999873,0.02,0.00869985120963893
7.019999999999873,0.02,0.008804496516789575
7.0249999999998725,-0.03,0.00897509553230079
7.029999999999872,-0.03,0.009095964320089583
7.034999999999872,0.02,0.009130256614652402
7.039999999999872,0.02,0.00920914039762564
7.044999999999872,0.03,0.009261148524498329
7.049999999999872,0.03,0.00932781439413402
7.054999999999872,-0.03,0.00956657821014501
7.059999999999872,-0.03,0.009879882913957663
7.064999999999872,0.02,0.010243124998085908
7.0699999999998715,0.02,0.010651723221091067
7.074999999999871,0.04,0.010894284307880281
7.079999999999871,0.04,0.010978422120461132
7.084999999999871,-0.02,0.010977920812706038
7.089999999999871,-0.02,0.0107977065051274
7.094999999999871,0.01,0.01055591773475802
7.099999999999871,0.01,0.010360838583718727
7.104999999999871,0.04,0.01020210367425826
7.109999999999871,0.04,0.010231243100602808
7.1149999999998705,-0.01,0.01042241282762862
7.11999999999987,-0.01,0.010548600765180044
7.12499999999987,-0.01,0.010642264835295567
7.12999999999987,-0.01,0.010731538052827769
7.13499999999987,0.05,0.010801523808199754
7.13999999999987,0.05,0.01104709598015945
7.14499999999987,0.01,0.011476159315130128
7.14999999999987,0.01,0.011956416340004026
7.15499999999987,-0.02,0.012535728415088897
7.15999999999987,-0.02,0.013111187246047316
7.1649999999998695,0.04,0.013550405961756646
7.169999999999869,0.04,0.013945417598536703
7.174999999999869,0.02,0.014224330887902552
7.179999999999869,0.02,0.014369197257020511
7.184999999999869,-0.02,0.014576540517804435
7.189999999999869,-0.02,0.014831916651687623
7.194999999999869,0.04,0.015124518380245892
7.199999999999869,0.04,0.015501475741631361
7.204999999999869,0.03,0.01570018604555763
7.2099999999998685,0.03,0.015629559320336467
7.214999999999868,-0.03,0.015482113126741843
7.219999999999868,-0.03,0.015262328948003124
7.224999999999868,0.03,0.015024472702784638
7.229999999999868,0.03,0.01482124237464876
7.234999999999868,0.04,0.014411332137637008
7.239999999999868,0.04,0.01380387372977441
7.244999999999868,-0.03,0.013240241666564203
7.249999999999868,-0.03,0.01270473015613863
7.2549999999998676,0.02,0.012227484045809813
7.2599999999998674,0.02,0.011805604515400045
7.264999999999867,0.04,0.011187782477689368
7.269999999999867,0.04,0.010402107967917252
7.274999999999867,-0.03,0.009618839126798787
7.279999999999867,-0.03,0.008803224947418921
7.284999999999867,0.01,0.008079771196815189
7.289999999999867,0.01,0.007528494118521443
7.294999999999867,0.04,0.007094422533198408
7.299999999999867,0.04,0.006934007517541319
7.3049999999998665,-0.02,0.00707092062088783
7.309999999999866,-0.02,0.007287212065845119
7.314999999999866,-0.01,0.007552305338209408
7.319999999999866,-0.01,0.007822206260083706
7.324999999999866,0.04,0.008060445716347339
7.329999999999866,0.04,0.008512644907309479
7.334999999999866,0.01,0.009247267944469893
7.339999999999866,0.01,0.010110059682790556
7.344999999999866,-0.02,0.011076151508772183
7.3499999999998655,-0.02,0.011998152584457234
7.354999999999865,0.04,0.012738050896361987
7.359999999999865,0.04,0.013403355609224753
7.364999999999865,0.02,0.013917156701349935
7.369999999999865,0.02,0.014224698162985445
7.374999999999865,-0.02,0.014508707777117508
7.379999999999865,-0.02,0.01478990575264068
7.384999999999865,0.04,0.015098847364380446
7.389999999999865,0.04,0.015489844852506398
7.394999999999865,0.03,0.01569893076812614
7.3999999999998645,0.03,0.01563780564000955
7.404999999999864,-0.03,0.01549914540311045
7.409999999999864,-0.03,0.015286721008029098
7.414999999999864,0.03,0.015055720233612263
7.419999999999864,0.03,0.014870559288130447
7.424999999999864,0.04,0.014528501552217717
7.429999999999864,0.04,0.014045488708097563
7.434999999999864,-0.03,0.013581011905644043
7.439999999999864,-0.03,0.013046753381592502
7.4449999999998635,0.02,0.012493237576597994
7.449999999999863,0.02,0.011996787332588105
7.454999999999863,0.04,0.011427114221385818
7.459999999999863,0.04,0.010865085104730443
7.464999999999863,-0.02,0.010416828130776786
7.469999999999863,-0.02,0.009968471766013476
7.474999999999863,0.0,0.009603211010912901
7.479999999999863,0.0,0.009355367238845672
7.484999999999863,0.05,0.009088858998268485
7.4899999999998625,0.05,0.008910045815809509
7.494999999999862,-0.01,0.008856888485792105
7.499999999999862,-0.01,0.008801454355153856
7.504999999999862,-0.01,0.008863465683841784
7.509999999999862,-0.01,0.00904776316809325
7.514999999999862,0.05,0.00919183435884354
7.519999999999862,0.05,0.009363588579724646
7.524999999999862,-0.0,0.009537783347821554
7.529999999999862,-0.0,0.009663977535376877
7.534999999999862,-0.02,0.009945713096851574
7.5399999999998615,-0.02,0.010351094191253282
7.544999999999861,0.05,0.010693713322726641
7.549999999999861,0.05,0.011019298799037864
7.554999999999861,0.01,0.011278712361657698
7.559999999999861,0.01,0.01147970892190254
7.564999999999861,-0.02,0.01182430034914575
7.569999999999861,-0.02,0.012223804357542572
7.574999999999861,0.04,0.012516613729777215
7.579999999999861,0.04,0.012740093556874247
7.5849999999998605,0.02,0.012780475807797453
7.58999999999986,0.02,0.012651471004444638
7.59499999999986,-0.02,0.0125587627030819
7.59999999999986,-0.02,0.012452470706874597
7.60499999999986,0.03,0.012326133049954413
7.60999999999986,0.03,0.012272062016116046
7.61499999999986,0.03,0.012095181412632341
7.61999999999986,0.03,0.011715024049862743
7.62499999999986,-0.03,0.011210423407296497
7.62999999999986,-0.03,0.010510458611702703
7.6349999999998595,0.02,0.009740023733107301
7.639999999999859,0.02,0.009060436106437317
7.644999999999859,0.04,0.008346036957781102
7.649999999999859,0.04,0.007619271764930967
7.654999999999859,-0.03,0.006971692995692978
7.659999999999859,-0.03,0.006301785893530755
7.664999999999859,0.0,0.005693435759818772
7.669999999999859,0.0,0.005207325072399277
7.674999999999859,0.04,0.004719039136963432
7.6799999999998585,0.04,0.004333309136754127
7.684999999999858,-0.02,0.004120685788583264
7.689999999999858,-0.02,0.003967060145048815
7.694999999999858,-0.01,0.004003511657254007
7.699999999999858,-0.01,0.004243078648978769
7.704999999999858,0.05,0.004473472136918616
7.709999999999858,0.05,0.004723720899706683
7.714999999999858,-0.01,0.004984821727938044
7.719999999999858,-0.01,0.0052150307676910625
7.7249999999998575,-0.02,0.005656007981701535
7.729999999999857,-0.02,0.0063229315667704695
7.734999999999857,0.05,0.0070431989303648065
7.739999999999857,0.05,0.007872046248943474
7.744999999999857,0.0,0.008738285211311182
7.749999999999857,0.0,0.009572093682471196
7.754999999999857,-0.02,0.010553071983175571
7.759999999999857,-0.02,0.011617912173185786
7.764999999999857,0.05,0.012590139110000308
7.769999999999857,0.05,0.013510172350322378
7.7749999999998565,0.02,0.014281928913366083
7.779999999999856,0.02,0.014898839644570533
7.784999999999856,-0.02,0.015549820701064134
7.789999999999856,-0.02,0.01610714103464286
7.794999999999856,0.04,0.01638447300458597
7.799999999999856,0.04,0.016417929560592983
7.804999999999856,0.03,0.016127711903858855
7.809999999999856,0.03,0.015599465382672695
7.814999999999856,-0.02,0.015113236732496566
7.8199999999998555,-0.02,0.014661103185123942
7.824999999999855,0.03,0.014245230620856432
7.829999999999855,0.03,0.013918856681403882
7.834999999999855,0.03,0.013477021500839506
7.839999999999855,0.03,0.01288600665516269
7.844999999999855,-0.03,0.012269956231198528
7.849999999999855,-0.03,0.011576769613970365
7.854999999999855,0.02,0.010906291984935318
7.859999999999855,0.02,0.010343766886177932
7.8649999999998546,0.04,0.009705181376789607
7.8699999999998544,0.04,0.009017645868020365
7.874999999999854,-0.02,0.008385335530905619
7.879999999999854,-0.02,0.007707016189385387
7.884999999999854,0.0,0.007058868979542287
7.889999999999854,0.0,0.00650300585346175
7.894999999999854,0.04,0.005921689785014094
7.899999999999854,0.04,0.0053965868646296275
7.904999999999854,-0.02,0.004969434139085279
7.909999999999854,-0.02,0.004549916263028154
7.9149999999998535,-0.01,0.00433589463336926
7.919999999999853,-0.01,0.004399382632068268
7.924999999999853,0.05,0.004545631336037184
7.929999999999853,0.05,0.004767349222791967
7.934999999999853,-0.01,0.0050098749584935555
7.939999999999853,-0.01,0.005222206854588495
7.944999999999853,-0.02,0.005647194663182812
7.949999999999853,-0.02,0.006296009787504369
7.954999999999853,0.05,0.006996933702132378
7.9599999999998525,0.05,0.0078003452642249945
7.964999999999852,0.0,0.008603349140574887
7.969999999999852,0.0,0.009306608459492516
7.974999999999852,-0.02,0.010093127895719207
7.979999999999852,-0.02,0.010940178961585448
7.984999999999852,0.05,0.011730791920628056
7.989999999999852,0.05,0.012524394669507386
7.994999999999852,0.02,0.013167673579436837
7.999999999999852,0.02,0.013583935052454275
8.004999999999852,-0.03,0.013905351939363328
8.009999999999852,-0.03,0.014028485025599027
8.014999999999853,0.04,0.013916786522250545
8.019999999999854,0.04,0.013729082248258119
8.024999999999855,0.03,0.01339968250159993
8.029999999999855,0.03,0.01299075750288589
8.034999999999856,-0.03,0.01275062310025374
8.039999999999857,-0.03,0.012591512069164933
8.044999999999858,0.02,0.012387244675022144
8.049999999999859,0.02,0.012099501786966541
8.05499999999986,0.04,0.011557114920752976
8.05999999999986,0.04,0.010905123265176233
8.064999999999861,-0.03,0.010481078318212355
8.069999999999862,-0.03,0.010278648194037922
8.074999999999863,0.02,0.010264101645045046
8.079999999999863,0.02,0.010342762193978982
8.084999999999864,0.03,0.010188964180070762
8.089999999999865,0.03,0.009814889131470321
8.094999999999866,-0.02,0.009495347329328016
8.099999999999866,-0.02,0.009335070442403857
8.104999999999867,0.01,0.009453563763851074
8.109999999999868,0.01,0.009790546148656138
8.114999999999869,0.04,0.010080100322099607
8.11999999999987,0.04,0.010336383794533019
8.12499999999987,-0.02,0.010601979496820547
8.129999999999871,-0.02,0.010754848696725489
8.134999999999872,0.01,0.0108738453136308
8.139999999999873,0.01,0.011007608130026398
8.144999999999873,0.04,0.011077084557896447
8.149999999999874,0.04,0.011183559674003104
8.154999999999875,0.0,0.011318237255351436
8.159999999999876,0.0,0.011346928079177683
8.164999999999877,-0.01,0.011352427369918911
8.169999999999877,-0.01,0.011356038382882997
8.174999999999878,0.04,0.011391762638083669
8.179999999999879,0.04,0.011687313363356712
8.18499999999988,0.01,0.012203067152505844
8.18999999999988,0.01,0.012742876383353963
8.194999999999881,-0.02,0.013297372452143255
8.199999999999882,-0.02,0.0138082548807122
8.204999999999883,0.04,0.014292387451103191
8.209999999999884,0.04,0.014883711011942545
8.214999999999884,0.03,0.015436564073937417
8.219999999999885,0.03,0.015865993204971323
8.224999999999886,-0.02,0.016299486265698486
8.229999999999887,-0.02,0.01668476496152234
8.234999999999888,0.03,0.017043015384504118
8.239999999999888,0.03,0.017451857938709067
8.244999999999889,0.04,0.017659245744834302
8.24999999999989,0.04,0.01756737346656561
8.25499999999989,-0.03,0.017302010168549396
8.259999999999891,-0.03,0.01686727855503
8.264999999999892,0.03,0.01645480270503892
8.269999999999893,0.03,0.016176063677256707
8.274999999999894,0.05,0.01575091753017675
8.279999999999895,0.05,0.015123284340280723
8.284999999999895,-0.03,0.014431747402221584
8.289999999999896,-0.03,0.013657901606607174
8.294999999999897,0.01,0.012931121681666177
8.299999999999898,0.01,0.012275318675993161
8.304999999999898,0.05,0.011493848142514003
8.3099999999999,0.05,0.010720618443111255
8.3149999999999,-0.02,0.010160050648157727
8.3199999999999,-0.02,0.009755060427587751
8.324999999999902,0.0,0.009584503195649224
8.329999999999902,0.0,0.009608829981963463
8.334999999999903,0.05,0.009635865165206729
8.339999999999904,0.05,0.009762256482088985
8.344999999999905,-0.01,0.01000573608198885
8.349999999999905,-0.01,0.01025492778620461
8.354999999999906,-0.01,0.010645438251984114
8.359999999999907,-0.01,0.011157326733985418
8.364999999999908,0.05,0.01163959443887401
8.369999999999909,0.05,0.012196259696132769
8.37499999999991,0.01,0.012793953960951399
8.37999999999991,0.01,0.013340689748353545
8.384999999999911,-0.02,0.01396527599520282
8.389999999999912,-0.02,0.01458896654900482
8.394999999999913,0.05,0.015062811106924165
8.399999999999913,0.05,0.015474892364359907
8.404999999999914,0.02,0.015769441692324627
8.409999999999915,0.02,0.015949599738868444
8.414999999999916,-0.02,0.01621755145012305
8.419999999999916,-0.02,0.016507902926459164
8.424999999999917,0.04,0.01672984852756019
8.429999999999918,0.04,0.016925963734421987
8.434999999999919,0.03,0.01692543564082001
8.43999999999992,0.03,0.016726138644708576
8.44499999999992,-0.02,0.016532263146638467
8.449999999999921,-0.02,0.016295946589412098
8.454999999999922,0.03,0.016026463163503955
8.459999999999923,0.03,0.015793089148292687
8.464999999999923,0.04,0.015401185443503189
8.469999999999924,0.04,0.014838711922715114
8.474999999999925,-0.03,0.014235187373554198
8.479999999999926,-0.03,0.013526281524950879
8.484999999999927,0.02,0.012829669141013066
8.489999999999927,0.02,0.012302333718432546
8.494999999999928,0.04,0.011939109018741205
8.499999999999929,0.04,0.011855010121859922
8.50499999999993,-0.02,0.012010842292620307
8.50999999999993,-0.02,0.012115155422861871
8.514999999999931,-0.0,0.012106125059946125
8.519999999999932,-0.0,0.012025480208518909
8.524999999999933,0.05,0.011992148493733246
8.529999999999934,0.05,0.012336348078793663
8.534999999999934,0.01,0.013078000165912276
8.539999999999935,0.01,0.013895743169584893
8.544999999999936,-0.02,0.014521829912048029
8.549999999999937,-0.02,0.014717311755054694
8.554999999999938,0.04,0.014513665734660165
8.559999999999938,0.04,0.014282883938212369
8.564999999999939,0.03,0.014166670439943976
8.56999999999994,0.03,0.01412228312291729
8.57499999999994,-0.02,0.014051091931007021
8.579999999999941,-0.02,0.01368930556758825
8.584999999999942,0.02,0.013034802373306547
8.589999999999943,0.02,0.012308852447832738
8.594999999999944,0.04,0.011529628363770163
8.599999999999945,0.04,0.01078599204178329
8.604999999999945,-0.02,0.010198068228754869
8.609999999999946,-0.02,0.009668619756353527
8.614999999999947,0.0,0.009274079965070535
8.619999999999948,0.0,0.009060223136089665
8.624999999999948,0.05,0.008824677902735967
8.62999999999995,0.05,0.008584270654524058
8.63499999999995,-0.02,0.008414754624355723
8.63999999999995,-0.02,0.008282320287347008
8.644999999999952,-0.0,0.008368932885382636
8.649999999999952,-0.0,0.008692990757165025
8.654999999999953,0.05,0.009047980364748132
8.659999999999954,0.05,0.009448504881319134
8.664999999999955,-0.01,0.009835663893036674
8.669999999999956,-0.01,0.01010988202039101
8.674999999999956,-0.01,0.010430094729090029
8.679999999999957,-0.01,0.010772732541504206
8.684999999999958,0.05,0.011009186870942673
8.689999999999959,0.05,0.011290420522328967
8.69499999999996,0.01,0.011640970395156325
8.69999999999996,0.01,0.012005131438705964
8.704999999999961,-0.02,0.012510009593172718
8.709999999999962,-0.02,0.013032851267449382
8.714999999999963,0.04,0.013341411648285088
8.719999999999963,0.04,0.013473495528631516
8.724999999999964,0.02,0.013393735414952979
8.729999999999965,0.02,0.013157119492445872
8.734999999999966,-0.02,0.01303372910067819
8.739999999999966,-0.02,0.013061144045735933
8.744999999999967,0.04,0.013279278592916386
8.749999999999968,0.04,0.01376625747227841
8.754999999999969,0.02,0.01422794826179103
8.75999999999997,0.02,0.014490794368898444
8.76499999999997,-0.03,0.014663780073794406
8.769999999999971,-0.03,0.014748879141617124
8.774999999999972,0.03,0.01489817679810072
8.779999999999973,0.03,0.015244167593403276
8.784999999999973,0.05,0.01554860019791858
8.789999999999974,0.05,0.015758215145674593
8.794999999999975,-0.03,0.015988968046898915
8.799999999999976,-0.03,0.01609961548322563
8.804999999999977,0.02,0.016048048535928977
8.809999999999977,0.02,0.0158410465447725
8.814999999999978,0.05,0.015289014557511266
8.819999999999979,0.05,0.014475159782286863
8.82499999999998,-0.02,0.013599204413067464
8.82999999999998,-0.02,0.012648729195130593
8.834999999999981,0.01,0.011794202692971063
8.839999999999982,0.01,0.01107446381812347
8.844999999999983,0.05,0.010260112096221439
8.849999999999984,0.05,0.009410300648435344
8.854999999999984,-0.02,0.008651048760650733
8.859999999999985,-0.02,0.007978043876753651
8.864999999999986,-0.01,0.007579271661534053
8.869999999999987,-0.01,0.007432184853147916
8.874999999999988,0.05,0.007281598039890024
8.879999999999988,0.05,0.007187478035310796
8.88499999999999,-0.01,0.007206683922639161
8.88999999999999,-0.01,0.007297527595001541
8.89499999999999,-0.01,0.007644318821560183
8.899999999999991,-0.01,0.008202544265314332
8.904999999999992,0.05,0.008704982686900243
8.909999999999993,0.05,0.009144189167939368
8.914999999999994,0.0,0.009460612758464706
8.919999999999995,0.0,0.00964193922691251
8.924999999999995,-0.02,0.009953854740156096
8.929999999999996,-0.02,0.010405234362637614
8.934999999999997,0.05,0.010879991672834004
8.939999999999998,0.05,0.011459556757812362
8.944999999999999,0.01,0.012032250088042297
8.95,0.01,0.012510037020568607
8.955,-0.02,0.013021597448263145
8.96,-0.02,0.013493590845560951
8.965000000000002,0.04,0.013881392551298135
8.970000000000002,0.04,0.01430415242710907
8.975000000000003,0.03,0.014612175276456396
8.980000000000004,0.03,0.01472596285716156
8.985000000000005,-0.03,0.014718823791080712
8.990000000000006,-0.03,0.014459508624159744
8.995000000000006,0.03,0.013970224254034163
9.000000000000007,0.03,0.013416801865449605
9.005000000000008,0.04,0.012731410823047244
9.010000000000009,0.04,0.011987291471954247
9.01500000000001,-0.03,0.011355244891094168
9.02000000000001,-0.03,0.010728046222909439
9.025000000000011,0.01,0.010094604785171721
9.030000000000012,0.01,0.009473613370083272
9.035000000000013,0.04,0.008742362681873945
9.040000000000013,0.04,0.008057806719270404
9.045000000000014,-0.02,0.007614632106880586
9.050000000000015,-0.02,0.007332958159931034
9.055000000000016,0.0,0.007258911580422364
9.060000000000016,0.0,0.007358977005594821
9.065000000000017,0.04,0.007430612320365438
9.070000000000018,0.04,0.007520970231220531
9.075000000000019,-0.01,0.007629376642200465
9.08000000000002,-0.01,0.0076513726826442155
9.08500000000002,-0.01,0.007742431368140955
9.090000000000021,-0.01,0.007953500388815586
9.095000000000022,0.05,0.008218715779616005
9.100000000000023,0.05,0.008651784223866863
9.105000000000024,0.0,0.009188987405357289
9.110000000000024,0.0,0.009709239553358026
9.115000000000025,-0.02,0.010332916738197756
9.120000000000026,-0.02,0.01100992074360294
9.125000000000027,0.04,0.011632866626954563
9.130000000000027,0.04,0.012303401161832176
9.135000000000028,0.02,0.012943695422550342
9.140000000000029,0.02,0.013490213937705432
9.14500000000003,-0.02,0.014062364643646389
9.15000000000003,-0.02,0.014577857504842572
9.155000000000031,0.04,0.014992199608549132
9.160000000000032,0.04,0.015394943826871392
9.165000000000033,0.03,0.015584996910577511
9.170000000000034,0.03,0.01546586204358185
9.175000000000034,-0.03,0.01516329400898567
9.180000000000035,-0.03,0.014649135286360901
9.185000000000036,0.03,0.014028569662067088
9.190000000000037,0.03,0.013426322239421275
9.195000000000038,0.04,0.012662516303767678
9.200000000000038,0.04,0.011783165556609158
9.20500000000004,-0.03,0.011045044419594035
9.21000000000004,-0.03,0.01042612830954051
9.21500000000004,0.01,0.009934035570190772
9.220000000000041,0.01,0.009539981454759792
9.225000000000042,0.04,0.008989115733499971
9.230000000000043,0.04,0.008374776108353185
9.235000000000044,-0.03,0.008029220963913935
9.240000000000045,-0.03,0.008012463788178594
9.245000000000045,0.01,0.008354098747772508
9.250000000000046,0.01,0.008903842376866682
9.255000000000047,0.04,0.009269413663767592
9.260000000000048,0.04,0.009428356156246194
9.265000000000049,-0.02,0.009551456598528692
9.27000000000005,-0.02,0.009687240538017458
9.27500000000005,0.01,0.009975961492081778
9.28000000000005,0.01,0.010370471281559587
9.285000000000052,0.04,0.010668975749907722
9.290000000000052,0.04,0.010956207508927516
9.295000000000053,-0.01,0.011287246425423867
9.300000000000054,-0.01,0.011567866396800923
9.305000000000055,0.0,0.011877394086002744
9.310000000000056,0.0,0.012173854836103145
9.315000000000056,0.04,0.01230759959666648
9.320000000000057,0.04,0.012390983210854243
9.325000000000058,0.01,0.01245965592911586
9.330000000000059,0.01,0.01244179279182792
9.33500000000006,-0.01,0.012467007312382537
9.34000000000006,-0.01,0.01255232482985895
9.345000000000061,0.04,0.012672653620919544
9.350000000000062,0.04,0.012934359776340826
9.355000000000063,0.01,0.01317642898838226
9.360000000000063,0.01,0.013233968434382608
9.365000000000064,-0.02,0.013242255039268071
9.370000000000065,-0.02,0.013261200079564535
9.375000000000066,0.04,0.013339487410025346
9.380000000000067,0.04,0.013545716052987556
9.385000000000067,0.03,0.013660574321636174
9.390000000000068,0.03,0.013598261089557884
9.395000000000069,-0.03,0.013510272851582425
9.40000000000007,-0.03,0.013342802070058519
9.40500000000007,0.03,0.013089196613029548
9.410000000000071,0.03,0.012829207058365471
9.415000000000072,0.03,0.012387489881380939
9.420000000000073,0.03,0.011758250005983444
9.425000000000074,-0.03,0.01110155874686581
9.430000000000074,-0.03,0.010379413080615855
9.435000000000075,0.02,0.009725383491017175
9.440000000000076,0.02,0.009258614356649545
9.445000000000077,0.04,0.008782035838170422
9.450000000000077,0.04,0.00827694148935813
9.455000000000078,-0.03,0.007802118289554909
9.460000000000079,-0.03,0.007243898020303282
9.46500000000008,-0.0,0.006725972701329996
9.47000000000008,-0.0,0.006356508044611914
9.475000000000081,0.05,0.006056694791589129
9.480000000000082,0.05,0.005951346698009134
9.485000000000083,-0.02,0.0060836993519986235
9.490000000000084,-0.02,0.006292485126409025
9.495000000000084,-0.01,0.00664188070996335
9.500000000000085,-0.01,0.007092399997716626
9.505000000000086,0.05,0.007466865693315412
9.510000000000087,0.05,0.007882246501361023
9.515000000000088,-0.0,0.008370979381202388
9.520000000000088,-0.0,0.008858745073012314
9.52500000000009,-0.02,0.00947327264695665
9.53000000000009,-0.02,0.010117696189891875
9.53500000000009,0.05,0.010579890786482672
9.540000000000092,0.05,0.010948483474533331
9.545000000000092,0.01,0.011233366828557084
9.550000000000093,0.01,0.011454243913427637
9.555000000000094,-0.02,0.01180910895678153
9.560000000000095,-0.02,0.01221362798480025
9.565000000000095,0.04,0.012510826639328669
9.570000000000096,0.04,0.012738000935501766
9.575000000000097,0.02,0.012782024000443159
9.580000000000098,0.02,0.012658528688613802
9.585000000000099,-0.02,0.01257246328738472
9.5900000000001,-0.02,0.012473710547461379
9.5950000000001,0.03,0.012359161066594664
9.600000000000101,0.03,0.01232318214351916
9.605000000000102,0.03,0.012173183230806338
9.610000000000102,0.03,0.011853255728986196
9.615000000000103,-0.03,0.011510802254777233
9.620000000000104,-0.03,0.011112009061342003
9.625000000000105,0.02,0.010737433016480884
9.630000000000106,0.02,0.010474978418788363
9.635000000000106,0.04,0.010128661736075016
9.640000000000107,0.04,0.009703201616646156
9.645000000000108,-0.03,0.009350350590236142
9.650000000000109,-0.03,0.009023797084936476
9.65500000000011,0.01,0.008800014849685223
9.66000000000011,0.01,0.008679472664643204
9.665000000000111,0.04,0.00840169738227788
9.670000000000112,0.04,0.007979641242256363
9.675000000000113,-0.02,0.007542393541501589
9.680000000000113,-0.02,0.007078580640086256
9.685000000000114,-0.0,0.006779810094170991
9.690000000000115,-0.0,0.006675038661895684
9.695000000000116,0.05,0.006504268792508433
9.700000000000117,0.05,0.006256345005758924
9.705000000000117,-0.02,0.005948248879728316
9.710000000000118,-0.02,0.005544055795674218
9.715000000000119,-0.01,0.005305840189122965
9.72000000000012,-0.01,0.005318518984821358
9.72500000000012,0.05,0.005441900028213768
9.730000000000121,0.05,0.005745784808893652
9.735000000000122,-0.01,0.006188133686997885
9.740000000000123,-0.01,0.006663000020738238
9.745000000000124,-0.02,0.00730730390342589
9.750000000000124,-0.02,0.008047353245696267
9.755000000000125,0.05,0.008684214587609233
9.760000000000126,0.05,0.009315464871381542
9.765000000000127,0.01,0.009956345573158087
9.770000000000127,0.01,0.01060896141419189
9.775000000000128,-0.02,0.011451014326169472
9.780000000000129,-0.02,0.01235625013688508
9.78500000000013,0.04,0.0131011592407835
9.79000000000013,0.04,0.013713355449058742
9.795000000000131,0.02,0.014085410945887994
9.800000000000132,0.02,0.01422215182183871
9.805000000000133,-0.02,0.014382705851978813
9.810000000000134,-0.02,0.014550922783254901
9.815000000000135,0.04,0.014594205301348506
9.820000000000135,0.04,0.014471695214702747
9.825000000000136,0.03,0.013989129863698468
9.830000000000137,0.03,0.013197446489310274
9.835000000000138,-0.03,0.012429136540256699
9.840000000000138,-0.03,0.011739201095028429
9.84500000000014,0.03,0.011116038052486184
9.85000000000014,0.03,0.010561861557678421
9.85500000000014,0.02,0.009883388533562193
9.860000000000142,0.02,0.009142437466796464
9.865000000000142,-0.03,0.008613769031348674
9.870000000000143,-0.03,0.008304132022809281
9.875000000000144,0.02,0.008229714065081266
9.880000000000145,0.02,0.008364476782144767
9.885000000000145,0.03,0.008434520204021861
9.890000000000146,0.03,0.008407889761780488
9.895000000000147,-0.02,0.008341178163618845
9.900000000000148,-0.02,0.00808327505361615
9.905000000000149,0.01,0.007703108044773243
9.91000000000015,0.01,0.0073719263023000895
9.91500000000015,0.04,0.007156808773646423
9.920000000000151,0.04,0.007201518599596112
9.925000000000152,-0.02,0.007441871921548258
9.930000000000152,-0.02,0.007611516458655369
9.935000000000153,-0.01,0.007713668232222168
9.940000000000154,-0.01,0.007795428748666529
9.945000000000155,0.04,0.007901404728353848
9.950000000000156,0.04,0.008277263428592706
9.955000000000156,0.01,0.008933634845172404
9.960000000000157,0.01,0.009150468519102778
9.965000000000158,-0.02,0.008764240867108702
9.970000000000159,-0.02,0.008158487009175583
9.97500000000016,0.04,0.0074682398185016334
9.98000000000016,0.04,0.006766129023257674
9.985000000000161,0.02,0.006063580357797216
9.990000000000162,0.02,0.0053322160091723156
9.995000000000163,-0.02,0.004527110344910707
10.000000000000163,-0.02,0.0036007706301436617
