time,voltage,lowess
0.005,4.09,1.0271648587704778
0.01,4.09,1.029825991524219
0.015,1.02,1.0327201656852047
0.02,1.02,1.0358897266336162
0.025,1.12,1.0393955248609161
0.030000000000000002,1.12,1.0432835027417802
0.035,1.03,1.0474394695749953
0.04,1.03,1.051525009977368
0.045,0.85,1.0549903588081664
0.049999999999999996,0.85,1.057029576323994
0.05499999999999999,1.26,1.0521244276961574
0.05999999999999999,1.26,1.0443879101780054
0.06499999999999999,1.07,1.0379132027260147
0.06999999999999999,1.07,1.0353575325530204
0.075,1.1,1.034919638928373
0.08,1.1,1.033288195182935
0.085,0.89,1.030297527373382
0.09000000000000001,0.89,1.0270518257052013
0.09500000000000001,0.87,1.0231211205518373
0.10000000000000002,0.87,1.018440345626286
0.10500000000000002,1.29,1.0130584927823878
0.11000000000000003,1.29,1.0068132242466947
0.11500000000000003,0.74,1.0013095625429547
0.12000000000000004,0.74,0.9983333406169604
0.12500000000000003,1.38,0.9980740698840463
0.13000000000000003,1.38,0.9994731007242754
0.13500000000000004,0.87,1.0009830513969191
0.14000000000000004,0.87,1.001967544235831
0.14500000000000005,0.77,1.0033381677346007
0.15000000000000005,0.77,1.0068079636127312
0.15500000000000005,1.13,1.013001316308198
0.16000000000000006,1.13,1.0201734694965134
0.16500000000000006,0.99,1.0275200675600211
0.17000000000000007,0.99,1.0375976975425016
0.17500000000000007,1.11,1.0520934716535655
0.18000000000000008,1.11,1.0681250544462852
0.18500000000000008,1.16,1.0814919502466902
0.19000000000000009,1.16,1.0908226916980486
0.1950000000000001,1.04,1.0971526332960837
0.2000000000000001,1.04,1.1019791500770213
0.2050000000000001,1.13,1.1042942612954436
0.2100000000000001,1.13,1.1021084116755349
0.2150000000000001,1.11,1.0974832721938903
0.2200000000000001,1.11,1.094102423025614
0.22500000000000012,1.08,1.0923833742430291
0.23000000000000012,1.08,1.0900908400108906
0.23500000000000013,1.22,1.084298072123072
0.24000000000000013,1.22,1.0735811604184873
0.24500000000000013,0.74,1.059598671195045
0.2500000000000001,0.74,1.0448190075957005
0.2550000000000001,1.45,1.0304313168797068
0.2600000000000001,1.45,1.0176183945807447
0.2650000000000001,0.89,1.0089094178497495
0.27000000000000013,0.89,1.0051926762618928
0.27500000000000013,0.78,1.0035127946670814
0.28000000000000014,0.78,1.0006433880841044
0.28500000000000014,1.11,0.9958219162864856
0.29000000000000015,1.11,0.989732053486039
0.29500000000000015,0.86,0.9850790227447483
0.30000000000000016,0.86,0.9860678428484135
0.30500000000000016,1.38,0.9933565460584789
0.31000000000000016,1.38,1.0029452981044464
0.31500000000000017,0.67,1.0108000872466385
0.3200000000000002,0.67,1.0153433576424367
0.3250000000000002,1.05,1.0167853149626385
0.3300000000000002,1.05,1.0167050230179713
0.3350000000000002,1.18,1.0155942737433257
0.3400000000000002,1.18,1.0129483643826085
0.3450000000000002,0.85,1.0112703412926403
0.3500000000000002,0.85,1.0148861657300916
0.3550000000000002,1.12,1.0254141269915318
0.3600000000000002,1.12,1.0395104311052723
0.3650000000000002,1.05,1.0526910271100571
0.3700000000000002,1.05,1.064363502008199
0.3750000000000002,0.78,1.0758889391786473
0.3800000000000002,0.78,1.0869994782663552
0.38500000000000023,1.36,1.0955579516611065
0.39000000000000024,1.36,1.099903471171714
0.39500000000000024,1.2,1.1015240270970172
0.40000000000000024,1.2,1.1032045560355348
0.40500000000000025,1.11,1.1035633089130443
0.41000000000000025,1.11,1.0988011439405896
0.41500000000000026,1.15,1.0889660072909717
0.42000000000000026,1.15,1.0765648863916626
0.42500000000000027,0.8,1.0632494263415495
0.43000000000000027,0.8,1.0502232677333747
0.4350000000000003,1.29,1.0372996787031732
0.4400000000000003,1.29,1.023187897267962
0.4450000000000003,0.6,1.0077961138050036
0.4500000000000003,0.6,0.992124588392216
0.4550000000000003,1.39,0.9780865503966479
0.4600000000000003,1.39,0.9681800551085842
0.4650000000000003,0.95,0.9640769970039839
0.4700000000000003,0.95,0.9643092176942485
0.4750000000000003,0.73,0.9644237895608281
0.4800000000000003,0.73,0.9624425850706839
0.4850000000000003,0.92,0.9594483413001933
0.4900000000000003,0.92,0.955279509694957
0.49500000000000033,0.97,0.9499444885898424
0.5000000000000003,0.97,0.9470602193559825
0.5050000000000003,1.26,0.9500592002840931
0.5100000000000003,1.26,0.9575389149035358
0.5150000000000003,0.64,0.965476409951579
0.5200000000000004,0.64,0.9708616749647204
0.5250000000000004,1.12,0.9733726261578843
0.5300000000000004,1.12,0.9746798405249976
0.5350000000000004,0.89,0.9751587876692593
0.5400000000000004,0.89,0.9747145056140604
0.5450000000000004,0.98,0.975409711979852
0.5500000000000004,0.98,0.9794182440265655
0.5550000000000004,0.97,0.9865404340293559
0.5600000000000004,0.97,0.9940884860038876
0.5650000000000004,1.16,1.0006637339406408
0.5700000000000004,1.16,1.0078317150133869
0.5750000000000004,0.81,1.0149505020743854
0.5800000000000004,0.81,1.0183079073259163
0.5850000000000004,1.13,1.0155825058714387
0.5900000000000004,1.13,1.008304112255372
0.5950000000000004,1.01,1.000901976679621
0.6000000000000004,1.01,0.9963565721081025
0.6050000000000004,1.15,0.9935616477308298
0.6100000000000004,1.15,0.9910923741861754
0.6150000000000004,0.77,0.9906157078736254
0.6200000000000004,0.77,0.9929401916878425
0.6250000000000004,0.87,0.9967212918520767
0.6300000000000004,0.87,1.0010619315933966
0.6350000000000005,1.26,1.0047026604229052
0.6400000000000005,1.26,1.006369949297449
0.6450000000000005,0.68,1.0058908891766654
0.6500000000000005,0.68,1.0044596888787782
0.6550000000000005,1.55,1.0046043555596256
0.6600000000000005,1.55,1.0073086413055667
0.6650000000000005,0.97,1.0117354070603268
0.6700000000000005,0.97,1.0169722475672338
0.6750000000000005,0.83,1.0208295022626694
0.6800000000000005,0.83,1.021759318980588
0.6850000000000005,0.89,1.0203923478683548
0.6900000000000005,0.89,1.017305238210649
0.6950000000000005,1.15,1.0161255487918361
0.7000000000000005,1.15,1.0230326361944362
0.7050000000000005,1.24,1.0382878923086813
0.7100000000000005,1.24,1.0557922384611815
0.7150000000000005,0.75,1.0698218959797694
0.7200000000000005,0.75,1.0780722352254695
0.7250000000000005,1.15,1.0815843483060845
0.7300000000000005,1.15,1.082638428974305
0.7350000000000005,1.38,1.081610630738339
0.7400000000000005,1.38,1.0796557175367711
0.7450000000000006,0.83,1.0807512244853734
0.7500000000000006,0.83,1.0861880861977193
0.7550000000000006,1.08,1.0923489811581424
0.7600000000000006,1.08,1.0946808564253625
0.7650000000000006,1.25,1.0928200423391077
0.7700000000000006,1.25,1.0906447252375884
0.7750000000000006,0.79,1.090771936201982
0.7800000000000006,0.79,1.092684864702473
0.7850000000000006,1.48,1.094887559879078
0.7900000000000006,1.48,1.0956506032440512
0.7950000000000006,0.87,1.0949680854698607
0.8000000000000006,0.87,1.0944804725176165
0.8050000000000006,1.26,1.0933127397193358
0.8100000000000006,1.26,1.089792200485175
0.8150000000000006,0.99,1.08522459920988
0.8200000000000006,0.99,1.0806626134429924
0.8250000000000006,0.98,1.0752552796308585
0.8300000000000006,0.98,1.069755158173356
0.8350000000000006,1.37,1.0660460717202387
0.8400000000000006,1.37,1.0629041300148148
0.8450000000000006,0.59,1.0565419611443412
0.8500000000000006,0.59,1.0459865223070388
0.8550000000000006,1.45,1.0327662724323652
0.8600000000000007,1.45,1.0179222319384171
0.8650000000000007,0.86,1.0028314575735038
0.8700000000000007,0.86,0.9888672907458188
0.8750000000000007,1.09,0.9755164955587735
0.8800000000000007,1.09,0.962531139032369
0.8850000000000007,0.77,0.9507378478526383
0.8900000000000007,0.77,0.939029118907636
0.8950000000000007,0.82,0.9268662045433914
0.9000000000000007,0.82,0.9169736908819783
0.9050000000000007,1.19,0.9100708766935999
0.9100000000000007,1.19,0.9033625199179485
0.9150000000000007,0.6,0.8956666166360736
0.9200000000000007,0.6,0.8892925417105431
0.9250000000000007,1.11,0.8880039623892461
0.9300000000000007,1.11,0.8924586302344434
0.9350000000000007,0.91,0.8990292108198783
0.9400000000000007,0.91,0.9047870867639092
0.9450000000000007,0.58,0.9089793831072324
0.9500000000000007,0.58,0.9120837601466601
0.9550000000000007,0.96,0.9152111980704685
0.9600000000000007,0.96,0.9185758324494198
0.9650000000000007,1.26,0.9241760922893246
0.9700000000000008,1.26,0.9361323816921615
0.9750000000000008,0.79,0.9540514341744223
0.9800000000000008,0.79,0.9719075106492455
0.9850000000000008,0.91,0.9836242708590005
0.9900000000000008,0.91,0.9867914050778317
0.9950000000000008,0.98,0.9838578713378062
1.0000000000000007,0.98,0.9798678394492436
1.0050000000000006,1.31,0.9769557367128009
1.0100000000000005,1.31,0.9752330311947933
1.0150000000000003,0.78,0.976560790494633
1.0200000000000002,0.78,0.9808116038164411
1.0250000000000001,0.89,0.9859470284677082
1.03,0.89,0.9907193240187887
1.035,1.2,0.9928867726684865
1.0399999999999998,1.2,0.991028902374842
1.0449999999999997,0.54,0.9855052211740871
1.0499999999999996,0.54,0.9780860434055728
1.0549999999999995,1.41,0.9724380209317259
1.0599999999999994,1.41,0.9701246897802717
1.0649999999999993,1.07,0.9701496097434945
1.0699999999999992,1.07,0.9719261979059018
1.074999999999999,0.76,0.9736715145405804
1.079999999999999,0.76,0.9731734031606422
1.0849999999999989,0.79,0.9694799101472856
1.0899999999999987,0.79,0.9620643391443793
1.0949999999999986,1.1,0.9543455718326579
1.0999999999999985,1.1,0.9537766046788032
1.1049999999999984,1.1,0.9642229668309266
1.1099999999999983,1.1,0.982256125429531
1.1149999999999982,0.75,1.0013183425669985
1.119999999999998,0.75,1.0159726936972455
1.124999999999998,1.02,1.0241017671672898
1.129999999999998,1.02,1.0268972279224569
1.1349999999999978,1.28,1.0256121845923998
1.1399999999999977,1.28,1.022680191747503
1.1449999999999976,1.03,1.0225944109400749
1.1499999999999975,1.03,1.0264169508646914
1.1549999999999974,0.92,1.029659090516762
1.1599999999999973,0.92,1.0272448569340138
1.1649999999999971,1.1,1.019325548804699
1.169999999999997,1.1,1.0095786834023843
1.174999999999997,0.77,0.9987648322338805
1.1799999999999968,0.77,0.9860605996656739
1.1849999999999967,1.34,0.972733358383024
1.1899999999999966,1.34,0.9604761219724636
1.1949999999999965,0.69,0.9507682149349065
1.1999999999999964,0.69,0.9439302940736705
1.2049999999999963,1.23,0.9384821697172558
1.2099999999999962,1.23,0.9341591037198057
1.214999999999996,0.57,0.9325626696316766
1.219999999999996,0.57,0.9335137944591335
1.2249999999999959,0.9,0.9354529480769382
1.2299999999999958,0.9,0.9390109697042508
1.2349999999999957,1.1,0.9448353547672684
1.2399999999999956,1.1,0.9508278097363569
1.2449999999999954,0.81,0.9555058919548867
1.2499999999999953,0.81,0.9609384008197528
1.2549999999999952,1.31,0.9693366134838336
1.2599999999999951,1.31,0.9793185823596602
1.264999999999995,0.84,0.9891047649505421
1.269999999999995,0.84,0.9995222547484537
1.2749999999999948,0.91,1.0116823980762097
1.2799999999999947,0.91,1.0253542094898775
1.2849999999999946,0.98,1.039710902361118
1.2899999999999945,0.98,1.053476539727105
1.2949999999999944,1.09,1.0666701946956012
1.2999999999999943,1.09,1.0809358099709034
1.3049999999999942,1.28,1.0950431300564936
1.309999999999994,1.28,1.1043228906501725
1.314999999999994,1.15,1.105364937460787
1.3199999999999938,1.15,1.0988557991079935
1.3249999999999937,1.13,1.0876178128833116
1.3299999999999936,1.13,1.0749955541572809
1.3349999999999935,1.16,1.0658336046100843
1.3399999999999934,1.16,1.063933269811319
1.3449999999999933,0.67,1.070205000337953
1.3499999999999932,0.67,1.083004297329105
1.354999999999993,0.98,1.0998913669581853
1.359999999999993,0.98,1.1200260203666836
1.3649999999999929,1.07,1.1467347940603776
1.3699999999999928,1.07,1.1839808855634113
1.3749999999999927,1.57,1.2335763155213404
1.3799999999999926,1.57,1.2969534045481574
1.3849999999999925,1.34,1.377386220494936
1.3899999999999924,1.34,1.476580965797084
1.3949999999999922,1.2,1.5899392595411188
1.3999999999999921,1.2,1.7116279601670596
1.404999999999992,1.84,1.8286270672875702
1.409999999999992,1.84,1.9266920361886934
1.4149999999999918,4.09,2.012514120429973
1.4199999999999917,4.09,2.101427775616235
1.4249999999999916,2.82,2.2019681114690943
1.4299999999999915,2.82,2.3135592522946413
1.4349999999999914,4.09,2.429353134260568
1.4399999999999913,4.09,2.5401769357072883
1.4449999999999912,2.26,2.634766608829114
1.449999999999991,2.26,2.7041960922281274
1.454999999999991,3.02,2.748406852146582
1.4599999999999909,3.02,2.78053329414703
1.4649999999999908,1.68,2.8192904520956588
1.4699999999999906,1.68,2.8741686948933136
1.4749999999999905,3.16,2.9440855087852107
1.4799999999999904,3.16,3.0151943886280206
1.4849999999999903,2.85,3.0689093122451307
1.4899999999999902,2.85,3.099381423900017
1.4949999999999901,0.95,3.1078526689708803
1.49999999999999,0.95,3.093898060284728
1.50499999999999,3.74,3.058169511681405
1.5099999999999898,3.74,3.0050191778445674
1.5149999999999897,3.39,2.9450546166384237
1.5199999999999896,3.39,2.887509108485472
1.5249999999999895,2.79,2.8221079645234584
1.5299999999999894,2.79,2.7225840141983717
1.5349999999999893,1.6,2.580787923132823
1.5399999999999892,1.6,2.4202180387772168
1.544999999999989,2.24,2.2673734169331
1.549999999999989,2.24,2.137623483818658
1.5549999999999888,1.78,2.0501996552357253
1.5599999999999887,1.78,2.00903235955947
1.5649999999999886,1.82,1.9989042746769308
1.5699999999999885,1.82,2.013885563674053
1.5749999999999884,4.09,2.0583939266569318
1.5799999999999883,4.09,2.133175520321483
1.5849999999999882,1.68,2.234192580045358
1.589999999999988,1.68,2.3577151354477985
1.594999999999988,2.71,2.5017532318499667
1.5999999999999879,2.71,2.667883183574541
1.6049999999999878,1.77,2.859443394136842
1.6099999999999877,1.77,3.045700947349623
1.6149999999999876,3.79,3.0881607001921565
1.6199999999999875,3.79,2.9908402581203233
1.6249999999999873,3.76,2.8978551641600285
1.6299999999999872,3.76,2.8647497809261675
1.6349999999999871,1.51,2.875416611496141
1.639999999999987,1.51,2.8898959143782856
1.644999999999987,3.94,2.8565644845302294
1.6499999999999868,3.94,2.7522908574201477
1.6549999999999867,2.17,2.613843144445738
1.6599999999999866,2.17,2.48206313344326
1.6649999999999865,2.14,2.400706799253361
1.6699999999999864,2.14,2.3819192313915383
1.6749999999999863,2.48,2.3997095873069805
1.6799999999999862,2.48,2.416268215614441
1.684999999999986,2.8,2.4149719885961924
1.689999999999986,2.8,2.4013087727920936
1.6949999999999859,2.4,2.382337487102868
1.6999999999999857,2.4,2.359980742614254
1.7049999999999856,3.42,2.3322621365813614
1.7099999999999855,3.42,2.297118763860267
1.7149999999999854,1.98,2.254020104583134
1.7199999999999853,1.98,2.2051789764035155
1.7249999999999852,2.16,2.157929923624815
1.729999999999985,2.16,2.120188461157056
1.734999999999985,1.95,2.0973346418645513
1.739999999999985,1.95,2.0912838564167577
1.7449999999999848,1.96,2.103521932864924
1.7499999999999847,1.96,2.134850635285187
1.7549999999999846,2.03,2.178416883300611
1.7599999999999845,2.03,2.2258521137684957
1.7649999999999844,2.64,2.2752784702582067
1.7699999999999843,2.64,2.3299363748052553
1.7749999999999841,1.65,2.394711328948234
1.779999999999984,1.65,2.470855587299228
1.784999999999984,3.38,2.555183309091137
1.7899999999999838,3.38,2.639293048728131
1.7949999999999837,1.98,2.709599231277901
1.7999999999999836,1.98,2.756492258515047
1.8049999999999835,4.04,2.7776060492334813
1.8099999999999834,4.04,2.779106489601874
1.8149999999999833,3.21,2.7709934972761574
1.8199999999999832,3.21,2.7517670912511227
1.824999999999983,3.26,2.718695593169933
1.829999999999983,3.26,2.6746175966366246
1.8349999999999829,1.77,2.6178436330225354
1.8399999999999828,1.77,2.5421625732596267
1.8449999999999827,1.8,2.447766233389696
1.8499999999999825,1.8,2.3469041434011912
1.8549999999999824,2.88,2.2603928083902796
1.8599999999999823,2.88,2.2047287785216017
1.8649999999999822,1.23,2.1794878306672385
1.8699999999999821,1.23,2.168257490512978
1.874999999999982,2.05,2.157766303194459
1.879999999999982,2.05,2.14529624608741
1.8849999999999818,3.76,2.1284322403342744
1.8899999999999817,3.76,2.1081361484212215
1.8949999999999816,2.95,2.0928640777674197
1.8999999999999815,2.95,2.0961356476364967
1.9049999999999814,1.55,2.1275105759771105
1.9099999999999813,1.55,2.177439866702276
1.9149999999999812,2.03,2.229957767267129
1.919999999999981,2.03,2.284896060009573
1.924999999999981,2.05,2.3494689474009363
1.9299999999999808,2.05,2.4169822183295513
1.9349999999999807,3.15,2.4842619151670045
1.9399999999999806,3.15,2.558500805497728
1.9449999999999805,3.29,2.640736449639412
1.9499999999999804,3.29,2.722600968176444
1.9549999999999803,2.63,2.802683298359314
1.9599999999999802,2.63,2.887379882841765
1.96499999999998,2.1,2.966158826541845
1.96999999999998,2.1,3.0216959143430966
1.9749999999999799,4.09,3.047974761420799
1.9799999999999798,4.09,3.057371083703277
1.9849999999999797,1.35,3.073062186099825
1.9899999999999796,1.35,3.1083242627842833
1.9949999999999795,3.66,3.1678761360685956
1.9999999999999793,3.66,3.2436241064615112
2.0049999999999795,3.22,3.294688177042519
2.0099999999999794,3.22,3.2769207504059303
2.0149999999999793,2.93,3.220249403786871
2.019999999999979,2.93,3.1681019300967903
2.024999999999979,4.09,3.132022176693339
2.029999999999979,4.09,3.1051485806981582
2.034999999999979,1.44,3.0740252948089473
2.0399999999999787,1.44,3.0345684138040085
2.0449999999999786,2.59,2.9938428574559492
2.0499999999999785,2.59,2.954917562720407
2.0549999999999784,3.49,2.9133122755233325
2.0599999999999783,3.49,2.863349107790511
2.064999999999978,3.02,2.8049285917930016
2.069999999999978,3.02,2.739319051331811
2.074999999999978,2.17,2.6699842802711626
2.079999999999978,2.17,2.6058248201928267
2.0849999999999778,1.09,2.549272312736141
2.0899999999999777,1.09,2.4952777489408082
2.0949999999999775,3.34,2.4351731315509935
2.0999999999999774,3.34,2.3708994142241306
2.1049999999999773,1.64,2.315002057535206
2.1099999999999772,1.64,2.2734614569173845
2.114999999999977,2.35,2.2429978377073123
2.119999999999977,2.35,2.2121366253424184
2.124999999999977,3.07,2.1721920963217816
2.129999999999977,3.07,2.1341738025180135
2.1349999999999767,1.48,2.105490709929153
2.1399999999999766,1.48,2.0833242522567277
2.1449999999999765,2.96,2.060823027604457
2.1499999999999764,2.96,2.0316509198642074
2.1549999999999763,1.09,1.9929591635958626
2.159999999999976,1.09,1.9503366525768215
2.164999999999976,2.04,1.9176989727715785
2.169999999999976,2.04,1.9043806954354414
2.174999999999976,1.99,1.9074035635930897
2.1799999999999757,1.99,1.9178353153832195
2.1849999999999756,1.23,1.932302598122501
2.1899999999999755,1.23,1.954857567579823
2.1949999999999754,2.09,1.9839811965137772
2.1999999999999753,2.09,2.0127596151106815
2.204999999999975,2.2,2.0413064476613645
2.209999999999975,2.2,2.0760914610252605
2.214999999999975,1.95,2.1180222695492463
2.219999999999975,1.95,2.1602016076577635
2.2249999999999748,2.55,2.1943952595376133
2.2299999999999747,2.55,2.2170123286935985
2.2349999999999746,1.39,2.2335895336247873
2.2399999999999745,1.39,2.25295330216853
2.2449999999999743,2.77,2.2808634963362144
2.2499999999999742,2.77,2.3190935703845414
2.254999999999974,2.22,2.3644946377904614
2.259999999999974,2.22,2.408163305300404
2.264999999999974,1.77,2.4402103157683337
2.269999999999974,1.77,2.458263099281201
2.2749999999999737,2.91,2.4637155055727598
2.2799999999999736,2.91,2.45565494664411
2.2849999999999735,3.44,2.4388071908671276
2.2899999999999734,3.44,2.422474998095127
2.2949999999999733,2.59,2.4073125298591447
2.299999999999973,2.59,2.3832141954763566
2.304999999999973,2.25,2.3398956048748936
2.309999999999973,2.25,2.2760771082015867
2.314999999999973,1.43,2.196600578469328
2.3199999999999728,1.43,2.112099875010956
2.3249999999999726,2.47,2.0360325203960183
2.3299999999999725,2.47,1.973634132456394
2.3349999999999724,1.31,1.924339396395279
2.3399999999999723,1.31,1.8860723640258368
2.344999999999972,2.0,1.85948593856625
2.349999999999972,2.0,1.8445251526880864
2.354999999999972,3.71,1.8364426431902416
2.359999999999972,3.71,1.8296962323253474
2.364999999999972,1.61,1.820068098708825
2.3699999999999717,1.61,1.8102053448998467
2.3749999999999716,1.87,1.8034909490564333
2.3799999999999715,1.87,1.7941282541671069
2.3849999999999714,2.03,1.7756392628080395
2.3899999999999713,2.03,1.750714700928486
2.394999999999971,1.73,1.7217650004884832
2.399999999999971,1.73,1.6886330914326382
2.404999999999971,1.63,1.6608009027850934
2.409999999999971,1.63,1.6450288088869573
2.4149999999999707,1.38,1.6351219986943226
2.4199999999999706,1.38,1.6281885283826896
2.4249999999999705,2.92,1.6264635486869436
2.4299999999999704,2.92,1.631833150909717
2.4349999999999703,1.3,1.6509763625215923
2.43999999999997,1.3,1.6884917948712677
2.44499999999997,2.01,1.7397967433886978
2.44999999999997,2.01,1.800047356113337
2.45499999999997,4.09,1.871376106888487
2.4599999999999698,4.09,1.952956383679856
2.4649999999999697,1.64,2.0342357480582454
2.4699999999999696,1.64,2.1050110565138866
2.4749999999999694,2.98,2.1624024693023944
2.4799999999999693,2.98,2.2088529190717816
2.4849999999999692,2.18,2.2439480630739927
2.489999999999969,2.18,2.267607661570156
2.494999999999969,2.88,2.283052133145325
2.499999999999969,2.88,2.294506651848864
2.504999999999969,2.05,2.3094816567612635
2.5099999999999687,2.05,2.3308959407774337
2.5149999999999686,2.1,2.354156453470889
2.5199999999999685,2.1,2.374925502995709
2.5249999999999684,2.17,2.3924210022672603
2.5299999999999683,2.17,2.4075190854594117
2.534999999999968,3.41,2.423397620483025
2.539999999999968,3.41,2.44568137789684
2.544999999999968,3.03,2.478214431825763
2.549999999999968,3.03,2.5150641944219387
2.5549999999999677,1.73,2.540835682559831
2.5599999999999676,1.73,2.545471438605051
2.5649999999999675,2.69,2.529011865429818
2.5699999999999674,2.69,2.4936099897828274
2.5749999999999673,2.6,2.4414100677968285
2.579999999999967,2.6,2.381402977494405
2.584999999999967,1.11,2.3263105255921497
2.589999999999967,1.11,2.279243242463724
2.594999999999967,2.02,2.2340685442788137
2.599999999999967,2.02,2.1836204886341264
2.6049999999999667,2.41,2.1273676104954267
2.6099999999999666,2.41,2.072025660113055
2.6149999999999665,1.52,2.0241799170508914
2.6199999999999664,1.52,1.9843595740466062
2.6249999999999662,2.37,1.9475891337590125
2.629999999999966,2.37,1.9094185732738038
2.634999999999966,1.49,1.8717276672829533
2.639999999999966,1.49,1.8397789009009216
2.644999999999966,2.12,1.8185990105975993
2.6499999999999657,2.12,1.8118727042683
2.6549999999999656,1.55,1.8174815900270318
2.6599999999999655,1.55,1.8280674896876252
2.6649999999999654,1.4,1.8400094643253537
2.6699999999999653,1.4,1.855967798214051
2.674999999999965,2.11,1.8749638857947504
2.679999999999965,2.11,1.890751187005235
2.684999999999965,2.16,1.9001310639760394
2.689999999999965,2.16,1.9054836244278404
2.6949999999999648,1.87,1.9056432023232976
2.6999999999999647,1.87,1.89345475831606
2.7049999999999645,2.33,1.8649717097970813
2.7099999999999644,2.33,1.8238178121345374
2.7149999999999643,1.48,1.7759072337602844
2.7199999999999642,1.48,1.7255127626348603
2.724999999999964,1.79,1.6737974717033195
2.729999999999964,1.79,1.6209586926892878
2.734999999999964,1.07,1.5706705250144346
2.739999999999964,1.07,1.526267449400373
2.7449999999999637,1.59,1.4876814428134846
2.7499999999999636,1.59,1.4552186300034418
2.7549999999999635,1.53,1.4297051383378498
2.7599999999999634,1.53,1.4105863193629706
2.7649999999999633,1.05,1.3985046082591421
2.769999999999963,1.05,1.3946334969908445
2.774999999999963,1.89,1.3958721978740858
2.779999999999963,1.89,1.3972095465276073
2.784999999999963,0.82,1.397088251163476
2.7899999999999627,0.82,1.3972601863297034
2.7949999999999626,1.44,1.3973234886341044
2.7999999999999625,1.44,1.395107556603271
2.8049999999999624,1.69,1.3911649931889507
2.8099999999999623,1.69,1.386186681384171
2.814999999999962,1.18,1.377464099550707
2.819999999999962,1.18,1.3631304669332613
2.824999999999962,1.74,1.3420087753466148
2.829999999999962,1.74,1.312637648637588
2.8349999999999618,0.79,1.2774402916393917
2.8399999999999617,0.79,1.241031117773319
2.8449999999999616,1.69,1.2050491947424793
2.8499999999999615,1.69,1.171007437010152
2.8549999999999613,0.84,1.1431421605467667
2.8599999999999612,0.84,1.1229461319467495
2.864999999999961,0.88,1.1090935990453699
2.869999999999961,0.88,1.10224675848459
2.874999999999961,1.36,1.1034112134087024
2.879999999999961,1.36,1.1104021976110943
2.8849999999999607,0.66,1.1211634378450304
2.8899999999999606,0.66,1.1369819297331025
2.8949999999999605,1.66,1.1568852782099919
2.8999999999999604,1.66,1.1756134722412463
2.9049999999999603,1.02,1.188907605979323
2.90999999999996,1.02,1.196239699035301
2.91499999999996,1.32,1.1972908223002277
2.91999999999996,1.32,1.192983418229487
2.92499999999996,1.36,1.1865997020935528
2.9299999999999597,1.36,1.1790994118064568
2.9349999999999596,0.9,1.1697903519301718
2.9399999999999595,0.9,1.1600968547721575
2.9449999999999594,1.29,1.1516082983868208
2.9499999999999593,1.29,1.1425313740496559
2.954999999999959,0.79,1.1305557271595499
2.959999999999959,0.79,1.117278902087368
2.964999999999959,1.51,1.1070202163831722
2.969999999999959,1.51,1.1028695831535378
2.974999999999959,0.98,1.1057190004032076
2.9799999999999587,0.98,1.113082688337535
2.9849999999999586,1.1,1.1203459118919288
2.9899999999999585,1.1,1.12559980709182
2.9949999999999584,1.01,1.1281075323489729
2.9999999999999583,1.01,1.1262702774483841
3.004999999999958,1.17,1.121417291433456
3.009999999999958,1.17,1.1185435664765002
3.014999999999958,1.37,1.1203093109864037
3.019999999999958,1.37,1.1241216474544782
3.0249999999999577,0.98,1.1262029223317425
3.0299999999999576,0.98,1.1247529888083365
3.0349999999999575,1.05,1.118253065992182
3.0399999999999574,1.05,1.105713777731812
3.0449999999999573,1.22,1.0884680911724132
3.049999999999957,1.22,1.0701651669249084
3.054999999999957,1.02,1.0551040924059734
3.059999999999957,1.02,1.0454680602133444
3.064999999999957,1.07,1.0404127519245971
3.0699999999999568,1.07,1.037121626362762
3.0749999999999567,0.86,1.0343633248473503
3.0799999999999566,0.86,1.0326592607338776
3.0849999999999564,1.01,1.0304659394931348
3.0899999999999563,1.01,1.0266618029790129
3.0949999999999562,1.13,1.0234964197494931
3.099999999999956,1.13,1.0229161585353619
3.104999999999956,0.97,1.0239794761361565
3.109999999999956,0.97,1.0257011133207234
3.114999999999956,1.29,1.0290232819594534
3.1199999999999557,1.29,1.034042640459169
3.1249999999999556,0.59,1.0383160094817672
3.1299999999999555,0.59,1.039426340129194
3.1349999999999554,1.23,1.0357748543987948
3.1399999999999553,1.23,1.0280808146739597
3.144999999999955,0.89,1.0204427369349962
3.149999999999955,0.89,1.015420250126249
3.154999999999955,1.26,1.011321981340372
3.159999999999955,1.26,1.006818186699398
3.1649999999999547,0.98,1.003575523713578
3.1699999999999546,0.98,1.0018046769980808
3.1749999999999545,0.71,0.9993613516022765
3.1799999999999544,0.71,0.9953233513461839
3.1849999999999543,1.33,0.989339453874865
3.189999999999954,1.33,0.9806537289305454
3.194999999999954,0.48,0.9693565807957066
3.199999999999954,0.48,0.9575169140256
3.204999999999954,1.54,0.9476185129998164
3.209999999999954,1.54,0.9403300127748454
3.2149999999999537,0.85,0.9356436668288052
3.2199999999999536,0.85,0.9326800195718608
3.2249999999999535,0.83,0.9289424795891265
3.2299999999999534,0.83,0.9247398835402882
3.2349999999999532,0.87,0.9233465358351808
3.239999999999953,0.87,0.9250392735889517
3.244999999999953,0.78,0.9280177593167984
3.249999999999953,0.78,0.9330885709431402
3.254999999999953,1.31,0.9420260071867488
3.2599999999999527,1.31,0.9533750023620582
3.2649999999999526,0.6,0.962939474173047
3.2699999999999525,0.6,0.968161316938956
3.2749999999999524,1.43,0.9694158747767946
3.2799999999999523,1.43,0.9685320602828441
3.284999999999952,0.8,0.9670929861338269
3.289999999999952,0.8,0.9651810310887343
3.294999999999952,1.04,0.9622842844798748
3.299999999999952,1.04,0.9596865340927606
3.3049999999999518,0.77,0.9595916568405017
3.3099999999999516,0.77,0.9608075142708103
3.3149999999999515,0.96,0.9616325702862717
3.3199999999999514,0.96,0.9641593135504024
3.3249999999999513,1.12,0.9699333319825088
3.329999999999951,1.12,0.9761647620815359
3.334999999999951,0.82,0.9788550942683572
3.339999999999951,0.82,0.9769177056162293
3.344999999999951,1.23,0.9706215732947251
3.349999999999951,1.23,0.9600177278675778
3.3549999999999507,0.92,0.9465090369120045
3.3599999999999506,0.92,0.9324679295972216
3.3649999999999505,0.92,0.9184978515729884
3.3699999999999504,0.92,0.9042342503683848
3.3749999999999503,0.76,0.8907856989040828
3.37999999999995,0.76,0.8788881582051848
3.38499999999995,0.76,0.8690885996570347
3.38999999999995,0.76,0.8630845536972536
3.39499999999995,1.02,0.8611795720870863
3.3999999999999497,1.02,0.8620438147398539
3.4049999999999496,0.68,0.866474416188492
3.4099999999999495,0.68,0.8762704998130115
3.4149999999999494,1.05,0.8915806613170036
3.4199999999999493,1.05,0.9103198036268372
3.424999999999949,0.91,0.9277780996108523
3.429999999999949,0.91,0.9407666485380418
3.434999999999949,0.71,0.9501085252952413
3.439999999999949,0.71,0.9575218189651085
3.4449999999999488,1.27,0.9620552578248847
3.4499999999999487,1.27,0.9620789574309074
3.4549999999999486,1.09,0.9597181071256156
3.4599999999999485,1.09,0.9588896996327424
3.4649999999999483,0.75,0.9595063641982821
3.4699999999999482,0.75,0.95775402853874
3.474999999999948,1.12,0.9512585420039689
3.479999999999948,1.12,0.9403982586003585
3.484999999999948,0.58,0.9270592494773189
3.489999999999948,0.58,0.9142008197374902
3.4949999999999477,1.23,0.9034634962563068
3.4999999999999476,1.23,0.8944264217189042
3.5049999999999475,0.73,0.8878005947883325
3.5099999999999474,0.73,0.884135968557379
3.5149999999999473,0.94,0.8827964797541712
3.519999999999947,0.94,0.8839971009751557
3.524999999999947,0.92,0.8866190905737285
3.529999999999947,0.92,0.8879389871279645
3.534999999999947,0.57,0.8888477187170107
3.5399999999999467,0.57,0.8938080632602184
3.5449999999999466,1.17,0.9049929488424457
3.5499999999999465,1.17,0.9198525138799925
3.5549999999999464,0.89,0.9347684183444749
3.5599999999999463,0.89,0.9491415512282415
3.564999999999946,0.8,0.96441863108661
3.569999999999946,0.8,0.9800892992954875
3.574999999999946,1.28,0.9926766779717502
3.579999999999946,1.28,0.9996112892936898
3.584999999999946,0.96,1.002670570419058
3.5899999999999457,0.96,1.0059832631119638
3.5949999999999456,0.96,1.010084778365315
3.5999999999999455,0.96,1.0115712170442186
3.6049999999999454,1.17,1.009078718361628
3.6099999999999453,1.17,1.0045161146346666
3.614999999999945,0.73,1.000783868552563
3.619999999999945,0.73,0.999917348176421
3.624999999999945,1.25,1.000719086193022
3.629999999999945,1.25,1.0001700058528602
3.6349999999999447,0.74,0.9979916055059391
3.6399999999999446,0.74,0.9955518612646653
3.6449999999999445,1.13,0.9922767500112968
3.6499999999999444,1.13,0.9882144365098136
3.6549999999999443,1.15,0.986297512884513
3.659999999999944,1.15,0.9875819473818301
3.664999999999944,0.67,0.9893435831215831
3.669999999999944,0.67,0.9898261185205816
3.674999999999944,1.22,0.9890854006598151
3.6799999999999438,1.22,0.986227510926278
3.6849999999999437,0.66,0.9807683176990343
3.6899999999999435,0.66,0.9745287139467184
3.6949999999999434,1.39,0.9687786818942834
3.6999999999999433,1.39,0.9635341293530916
3.7049999999999432,0.8,0.9595696869776013
3.709999999999943,0.8,0.9563424759459004
3.714999999999943,0.97,0.9522625165095305
3.719999999999943,0.97,0.9486256532099373
3.724999999999943,1.01,0.947833538287697
3.7299999999999427,1.01,0.9487548497763707
3.7349999999999426,0.61,0.9486219739520284
3.7399999999999425,0.61,0.9477062109331988
3.7449999999999424,1.21,0.9471503440443102
3.7499999999999423,1.21,0.9457377091735536
3.754999999999942,0.87,0.9425199425074212
3.759999999999942,0.87,0.9390187034863271
3.764999999999942,1.14,0.9367529162467104
3.769999999999942,1.14,0.9357556080510644
3.7749999999999417,0.82,0.935495471076107
3.7799999999999416,0.82,0.9345878132033559
3.7849999999999415,0.81,0.9320318967390552
3.7899999999999414,0.81,0.9294984852660411
3.7949999999999413,0.95,0.9288612960284511
3.799999999999941,0.95,0.9295470684585548
3.804999999999941,0.88,0.9315604045644116
3.809999999999941,0.88,0.9366147369345947
3.814999999999941,1.1,0.945192915452982
3.8199999999999408,1.1,0.9557772683649872
3.8249999999999407,0.94,0.9679095624383753
3.8299999999999406,0.94,0.9818406777591512
3.8349999999999405,0.91,0.9954551343726624
3.8399999999999403,0.91,1.0060532148912769
3.8449999999999402,1.05,1.0119034736878412
3.84999999999994,1.05,1.0130277934240803
3.85499999999994,0.94,1.0127395632411373
3.85999999999994,0.94,1.014398449551659
3.86499999999994,1.36,1.0172130534336083
3.8699999999999397,1.36,1.0188847730913952
3.8749999999999396,0.87,1.020438844242724
3.8799999999999395,0.87,1.0241388417443131
3.8849999999999394,0.87,1.0310783068509233
3.8899999999999393,0.87,1.04036506335062
3.894999999999939,1.25,1.0480181914928806
3.899999999999939,1.25,1.0505603262305734
3.904999999999939,0.64,1.0475273049783325
3.909999999999939,0.64,1.0409997185816882
3.9149999999999388,1.51,1.0336629726545574
3.9199999999999386,1.51,1.0265366155876607
3.9249999999999385,1.21,1.0204996043372576
3.9299999999999384,1.21,1.0164667109069052
3.9349999999999383,0.75,1.012559074908704
3.939999999999938,0.75,1.0065926430458891
3.944999999999938,0.89,0.9987531988956664
3.949999999999938,0.89,0.9888570693896835
3.954999999999938,0.84,0.9778266716199404
3.959999999999938,0.84,0.9698538993404044
3.9649999999999377,1.31,0.9672039709138491
3.9699999999999376,1.31,0.9680867715522493
3.9749999999999375,0.76,0.9706500503291702
3.9799999999999374,0.76,0.9731970916054847
3.9849999999999373,1.18,0.9746454482958914
3.989999999999937,1.18,0.9760208168089143
3.994999999999937,0.99,0.978094844327226
3.999999999999937,0.99,0.9802628883333566
4.004999999999937,0.65,0.9813136877025399
4.009999999999937,0.65,0.9807486696430062
4.014999999999937,1.07,0.9780827277080009
4.0199999999999365,1.07,0.9718300968912059
4.024999999999936,1.08,0.9625200355622142
4.029999999999936,1.08,0.9541379968324353
4.034999999999936,1.08,0.9495055421642832
4.039999999999936,1.08,0.9472414380536216
4.044999999999936,0.87,0.9444522897012677
4.049999999999936,0.87,0.9391405203365266
4.054999999999936,0.76,0.9314657922553048
4.059999999999936,0.76,0.9238629912802936
4.0649999999999356,0.95,0.9180259660285214
4.0699999999999354,0.95,0.9144912391598188
4.074999999999935,0.86,0.9155012880112529
4.079999999999935,0.86,0.9223062031847296
4.084999999999935,0.97,0.9317447616435639
4.089999999999935,0.97,0.9392598307938754
4.094999999999935,1.08,0.9423855220886682
4.099999999999935,1.08,0.9416973823801575
4.104999999999935,0.79,0.9396975293927312
4.109999999999935,0.79,0.9391844832589308
4.1149999999999345,1.23,0.9424872985221412
4.119999999999934,1.23,0.9506883973200807
4.124999999999934,0.59,0.9651707343813248
4.129999999999934,0.59,0.98613042215223
4.134999999999934,0.92,1.0107857924229995
4.139999999999934,0.92,1.037525085924868
4.144999999999934,1.08,1.0693906806838935
4.149999999999934,1.08,1.1100322886826088
4.154999999999934,1.18,1.159168293411776
4.1599999999999335,1.18,1.2130819602605531
4.164999999999933,1.6,1.265891234139774
4.169999999999933,1.6,1.3114094110920576
4.174999999999933,0.55,1.3466925058350012
4.179999999999933,0.55,1.3751564322323686
4.184999999999933,1.92,1.4035421635913383
4.189999999999933,1.92,1.4363733315427114
4.194999999999933,1.49,1.4760049725002058
4.199999999999933,1.49,1.5219100197140099
4.204999999999933,0.74,1.5736540348346784
4.2099999999999325,0.74,1.6333623405599984
4.214999999999932,1.64,1.7004471855946797
4.219999999999932,1.64,1.76576904975517
4.224999999999932,1.83,1.8177278859570694
4.229999999999932,1.83,1.8554879108874773
4.234999999999932,2.43,1.8866066417067076
4.239999999999932,2.43,1.914548014859415
4.244999999999932,3.92,1.9349949434404605
4.249999999999932,3.92,1.9433670187264314
4.2549999999999315,2.19,1.9391752849028818
4.259999999999931,2.19,1.9245036875001
4.264999999999931,1.78,1.9085840487646926
4.269999999999931,1.78,1.9106959319769035
4.274999999999931,1.65,1.950760803223815
4.279999999999931,1.65,2.0434134335151812
4.284999999999931,1.55,2.1819625425939377
4.289999999999931,1.55,2.3349400801038676
4.294999999999931,1.26,2.4841353749406796
4.2999999999999305,1.26,2.623429817038229
4.30499999999993,3.36,2.730423678888831
4.30999999999993,3.36,2.796146866004678
4.31499999999993,4.07,2.8502395521566504
4.31999999999993,4.07,2.9204361370845584
4.32499999999993,3.47,2.9767307248340495
4.32999999999993,3.47,2.96103312527771
4.33499999999993,3.88,2.8596483986498638
4.33999999999993,3.88,2.7075924895163204
4.34499999999993,2.07,2.537225240210678
4.3499999999999295,2.07,2.3510329738627824
4.354999999999929,2.2,2.149825159473558
4.359999999999929,2.2,1.953017379597656
4.364999999999929,1.22,1.7769270083667692
4.369999999999929,1.22,1.6257113008521908
4.374999999999929,1.51,1.5047049223180573
4.379999999999929,1.51,1.415188067396228
4.384999999999929,3.5,1.3466433085897773
4.389999999999929,3.5,1.2899738444923483
4.3949999999999285,0.84,1.248106544899625
4.399999999999928,0.84,1.2264218379489933
4.404999999999928,0.9,1.2238562466713194
4.409999999999928,0.9,1.2336917509560708
4.414999999999928,1.97,1.2526593503208592
4.419999999999928,1.97,1.2888889000667698
4.424999999999928,0.8,1.3436786629626973
4.429999999999928,0.8,1.4014282421223623
4.434999999999928,2.03,1.4472800730491908
4.439999999999928,2.03,1.479801849033549
4.4449999999999275,1.47,1.5045100880851694
4.449999999999927,1.47,1.5284469631693474
4.454999999999927,1.76,1.5583624864113887
4.459999999999927,1.76,1.5979415603875444
4.464999999999927,0.78,1.6440674150234371
4.469999999999927,0.78,1.6871523231463448
4.474999999999927,1.35,1.7208678517763292
4.479999999999927,1.35,1.7498156889624856
4.484999999999927,2.21,1.7855779359093031
4.4899999999999265,2.21,1.8340866271213159
4.494999999999926,2.11,1.8943392483213262
4.499999999999926,2.11,1.9626940475681882
4.504999999999926,1.93,2.0315841329548725
4.509999999999926,1.93,2.092328810016127
4.514999999999926,1.93,2.142693642344498
4.519999999999926,1.93,2.184234021376016
4.524999999999926,2.85,2.215294130388499
4.529999999999926,2.85,2.236052495074378
4.5349999999999255,2.12,2.250033242953815
4.539999999999925,2.12,2.257762108412387
4.544999999999925,2.4,2.254362081193043
4.549999999999925,2.4,2.2322832592732023
4.554999999999925,2.71,2.1863339806394095
4.559999999999925,2.71,2.118562625740744
4.564999999999925,1.83,2.035634603341196
4.569999999999925,1.83,1.9459699733669107
4.574999999999925,2.12,1.8573001453797973
4.579999999999925,2.12,1.770690677991892
4.5849999999999245,0.98,1.6851557998683617
4.589999999999924,0.98,1.6038394215288698
4.594999999999924,1.43,1.5304942959160872
4.599999999999924,1.43,1.4673891186318462
4.604999999999924,1.19,1.4167662912737975
4.609999999999924,1.19,1.3787682565028805
4.614999999999924,1.34,1.3521118217716916
4.619999999999924,1.34,1.336702800304836
4.624999999999924,1.62,1.3289920131388044
4.6299999999999235,1.62,1.3231321561236156
4.634999999999923,1.03,1.3188360255177838
4.639999999999923,1.03,1.3200518857721941
4.644999999999923,1.59,1.3265579876523999
4.649999999999923,1.59,1.3355711205212795
4.654999999999923,1.07,1.3480294765573078
4.659999999999923,1.07,1.3669482652701084
4.664999999999923,1.11,1.3929811293175032
4.669999999999923,1.11,1.4239005606487718
4.6749999999999226,1.96,1.4562055814822101
4.6799999999999224,1.96,1.4870060337279218
4.684999999999922,1.22,1.51590003308934
4.689999999999922,1.22,1.545022682419001
4.694999999999922,2.1,1.5744219273332845
4.699999999999922,2.1,1.5999883792743053
4.704999999999922,1.61,1.6181532121114954
4.709999999999922,1.61,1.6283497563976141
4.714999999999922,1.49,1.6296118023088637
4.719999999999922,1.49,1.6217646228288725
4.7249999999999215,1.75,1.6057477772090807
4.729999999999921,1.75,1.5817119541931959
4.734999999999921,1.41,1.5542495447201548
4.739999999999921,1.41,1.5309831717331677
4.744999999999921,1.93,1.5139650098680355
4.749999999999921,1.93,1.500090061266664
4.754999999999921,1.04,1.488265701798333
4.759999999999921,1.04,1.4792881094008192
4.764999999999921,1.34,1.4727516762595734
4.7699999999999205,1.34,1.4676144443287846
4.77499999999992,1.72,1.4620873059273614
4.77999999999992,1.72,1.4558515161010404
4.78499999999992,1.14,1.4532892277897018
4.78999999999992,1.14,1.4585753734800935
4.79499999999992,2.22,1.4688888338425687
4.79999999999992,2.22,1.4762664708231317
4.80499999999992,1.35,1.473672161254015
4.80999999999992,1.35,1.4608398223322485
4.81499999999992,1.25,1.4423092060559435
4.8199999999999195,1.25,1.4216587516656214
4.824999999999919,1.99,1.3990902559860865
4.829999999999919,1.99,1.3726301661029578
4.834999999999919,1.15,1.3438091482516052
4.839999999999919,1.15,1.317950386192721
4.844999999999919,1.15,1.2954060601383885
4.849999999999919,1.15,1.2710972546946464
4.854999999999919,1.4,1.2445750053234177
4.859999999999919,1.4,1.2216090998598745
4.8649999999999185,0.95,1.2062340997519283
4.869999999999918,0.95,1.1979103558458795
4.874999999999918,1.44,1.1929123352019455
4.879999999999918,1.44,1.1878384872063459
4.884999999999918,0.66,1.1838586430492257
4.889999999999918,0.66,1.1832365457668605
4.894999999999918,1.72,1.1846209016207043
4.899999999999918,1.72,1.1873653162036983
4.904999999999918,1.05,1.1937523546586792
4.9099999999999175,1.05,1.2029989146854816
4.914999999999917,0.98,1.2104568445410482
4.919999999999917,0.98,1.2146270441575588
4.924999999999917,1.74,1.21728715535655
4.929999999999917,1.74,1.2188409741699768
4.934999999999917,0.84,1.2203082436520944
4.939999999999917,0.84,1.224912683883911
4.944999999999917,1.59,1.2325094982591898
4.949999999999917,1.59,1.23789089477162
4.954999999999917,0.95,1.2366799480134496
4.9599999999999165,0.95,1.2294040986594252
4.964999999999916,1.32,1.220545590227427
4.969999999999916,1.32,1.2153605642204306
4.974999999999916,1.43,1.2142147181384426
4.979999999999916,1.43,1.2123567410796299
4.984999999999916,0.82,1.208034698583028
4.989999999999916,0.82,1.2040990462462304
4.994999999999916,1.3,1.2004896366136344
4.999999999999916,1.3,1.1932329200910534
5.0049999999999155,1.33,1.1812693377704264
5.009999999999915,1.33,1.1688636414224527
5.014999999999915,0.95,1.1607081589542905
5.019999999999915,0.95,1.1573472740393567
5.024999999999915,1.45,1.1556287138249715
5.029999999999915,1.45,1.1515188435488466
5.034999999999915,0.8,1.1433619309685699
5.039999999999915,0.8,1.1336183082944966
5.044999999999915,1.2,1.1258315287614502
5.049999999999915,1.2,1.1219594576292433
5.0549999999999145,1.23,1.1241495326277644
5.059999999999914,1.23,1.1326133651460397
5.064999999999914,0.96,1.143780345501212
5.069999999999914,0.96,1.155598818599267
5.074999999999914,1.2,1.1695491173329065
5.079999999999914,1.2,1.1853597554139728
5.084999999999914,1.12,1.200253117689892
5.089999999999914,1.12,1.213511039088163
5.094999999999914,1.58,1.2253234304980376
5.0999999999999135,1.58,1.2360893970841207
5.104999999999913,0.88,1.248247853558255
5.109999999999913,0.88,1.2615379580212527
5.114999999999913,1.63,1.2710779371468135
5.119999999999913,1.63,1.2746489681393292
5.124999999999913,1.16,1.2757092005153003
5.129999999999913,1.16,1.2771418756808195
5.134999999999913,1.09,1.2774903167916427
5.139999999999913,1.09,1.2747781763330632
5.1449999999999125,1.79,1.268757351673413
5.149999999999912,1.79,1.2596903939876238
5.154999999999912,0.76,1.2501350543386913
5.159999999999912,0.76,1.2439795406611085
5.164999999999912,1.71,1.2411708524158143
5.169999999999912,1.71,1.2375285529528928
5.174999999999912,0.96,1.229968990784756
5.179999999999912,0.96,1.2181907843611293
5.184999999999912,1.12,1.202390377427847
5.189999999999912,1.12,1.1843057834592792
5.1949999999999115,1.56,1.1656891184184102
5.199999999999911,1.56,1.145282671702029
5.204999999999911,0.84,1.1231639816692542
5.209999999999911,0.84,1.103028006387412
5.214999999999911,1.34,1.08532394078686
5.219999999999911,1.34,1.0651698701184449
5.224999999999911,0.78,1.0388761151653658
5.229999999999911,0.78,1.0090249453327458
5.234999999999911,0.97,0.9831237701335594
5.2399999999999105,0.97,0.9673603116984675
5.24499999999991,1.13,0.960740258416212
5.24999999999991,1.13,0.9576345699924534
5.25499999999991,0.61,0.9561211027946238
5.25999999999991,0.61,0.9580233176900124
5.26499999999991,0.91,0.962087887495581
5.26999999999991,0.91,0.9649076415514294
5.27499999999991,1.42,0.9672628032814127
5.27999999999991,1.42,0.9730479722883643
5.2849999999999095,0.65,0.9825183963947288
5.289999999999909,0.65,0.9923241655952622
5.294999999999909,1.27,0.9983537090141266
5.299999999999909,1.27,0.9975299825734223
5.304999999999909,0.72,0.9909441991915751
5.309999999999909,0.72,0.9829983590330437
5.314999999999909,1.31,0.9763348965423396
5.319999999999909,1.31,0.9723836104314627
5.324999999999909,0.82,0.9736230970913906
5.329999999999909,0.82,0.9787829696112662
5.3349999999999085,0.74,0.9833233388330292
5.339999999999908,0.74,0.9868250706565702
5.344999999999908,1.36,0.9933455631497796
5.349999999999908,1.36,1.0040521357529222
5.354999999999908,0.63,1.015829170842266
5.359999999999908,0.63,1.0271344354707643
5.364999999999908,1.43,1.0377683402832996
5.369999999999908,1.43,1.0462320734432828
5.374999999999908,0.82,1.0523000941194416
5.3799999999999075,0.82,1.056950701751718
5.384999999999907,1.38,1.0595377634260204
5.389999999999907,1.38,1.0604563194938974
5.394999999999907,0.89,1.0611214304163907
5.399999999999907,0.89,1.0599396631098692
5.404999999999907,0.88,1.0561285342581936
5.409999999999907,0.88,1.0526899747526963
5.414999999999907,1.47,1.0511410993359116
5.419999999999907,1.47,1.049500485505967
5.424999999999907,0.7,1.0473122394696288
5.4299999999999065,0.7,1.0472427889779774
5.434999999999906,1.19,1.0507551362403784
5.439999999999906,1.19,1.0550760992743435
5.444999999999906,1.13,1.0563791057770373
5.449999999999906,1.13,1.054192222009597
5.454999999999906,0.85,1.0501894088965602
5.459999999999906,0.85,1.0461559254766657
5.464999999999906,1.22,1.0415059559811368
5.469999999999906,1.22,1.0332972598981869
5.4749999999999055,1.01,1.022302644175952
5.479999999999905,1.01,1.0132282380943953
5.484999999999905,1.0,1.0072755396663375
5.489999999999905,1.0,1.00164351084481
5.494999999999905,1.0,0.9945916428835186
5.499999999999905,1.0,0.9866020671985347
5.504999999999905,0.73,0.9808778946760991
5.509999999999905,0.73,0.980871647708624
5.514999999999905,1.33,0.985781378136982
5.5199999999999045,1.33,0.9928887519390602
5.524999999999904,0.69,1.002434917050495
5.529999999999904,0.69,1.0151326653154382
5.534999999999904,1.03,1.0286712299900163
5.539999999999904,1.03,1.0406350837254734
5.544999999999904,1.38,1.0509612762506517
5.549999999999904,1.38,1.0600911801452717
5.554999999999904,0.74,1.067215252565988
5.559999999999904,0.74,1.0722702409665
5.564999999999904,1.43,1.0748511404078196
5.5699999999999035,1.43,1.0723221940444725
5.574999999999903,0.87,1.0635943360491737
5.579999999999903,0.87,1.0515166298763898
5.584999999999903,1.2,1.0393934558891158
5.589999999999903,1.2,1.0291277867400295
5.594999999999903,0.95,1.0216408516974065
5.599999999999903,0.95,1.0150204428076406
5.604999999999903,0.83,1.0072960900097885
5.609999999999903,0.83,1.000048816843066
5.6149999999999025,1.14,0.9943544916116009
5.619999999999902,1.14,0.9882501599087072
5.624999999999902,0.88,0.9809685151876312
5.629999999999902,0.88,0.9755344536999495
5.634999999999902,1.12,0.9764008972053447
5.639999999999902,1.12,0.9840613414349803
5.644999999999902,0.96,0.9937523782353626
5.649999999999902,0.96,1.0010745389548907
5.654999999999902,0.8,1.0055918091041252
5.6599999999999016,0.8,1.008980745009974
5.6649999999999014,1.02,1.0114631635672695
5.669999999999901,1.02,1.0126308298120785
5.674999999999901,1.38,1.015362504240246
5.679999999999901,1.38,1.023694903890946
5.684999999999901,0.78,1.0376114786571513
5.689999999999901,0.78,1.0525516203016305
5.694999999999901,1.18,1.0627043163911272
5.699999999999901,1.18,1.065473792340436
5.704999999999901,0.83,1.0634442580323522
5.7099999999999005,0.83,1.0609842602070427
5.7149999999999,1.38,1.059579559854179
5.7199999999999,1.38,1.0593317650616227
5.7249999999999,1.04,1.0618114581409652
5.7299999999999,1.04,1.0662074141982565
5.7349999999999,0.83,1.0691969858134263
5.7399999999999,0.83,1.0695048123434758
5.7449999999999,1.42,1.0668775101076848
5.7499999999999,1.42,1.06066590283315
5.7549999999998995,0.66,1.0515925823400742
5.759999999999899,0.66,1.0425036054605736
5.764999999999899,1.36,1.0355224427761391
5.769999999999899,1.36,1.0293855415381583
5.774999999999899,0.97,1.0215225750331733
5.779999999999899,0.97,1.0113197513035015
5.784999999999899,0.91,1.0013663679055684
5.789999999999899,0.91,0.995381713322231
5.794999999999899,1.05,0.992567624750248
5.799999999999899,1.05,0.988187466257576
5.8049999999998985,0.84,0.9822092833266262
5.809999999999898,0.84,0.9798656395800412
5.814999999999898,0.96,0.9834604635255167
5.819999999999898,0.96,0.9898683927318784
5.824999999999898,1.25,0.9949958023430083
5.829999999999898,1.25,0.9978122154879409
5.834999999999898,0.66,0.9998956486616218
5.839999999999898,0.66,1.0021897548382463
5.844999999999898,1.34,1.002891782550331
5.8499999999998975,1.34,1.0002922537306098
5.854999999999897,0.92,0.9963978879310088
5.859999999999897,0.92,0.994546010059452
5.864999999999897,0.86,0.9952046575857788
5.869999999999897,0.86,0.9970240401492719
5.874999999999897,1.16,0.9995177662525266
5.879999999999897,1.16,1.0013528277143033
5.884999999999897,0.67,1.0006872323326226
5.889999999999897,0.67,0.9988713262276383
5.8949999999998965,1.45,0.9984447260862255
5.899999999999896,1.45,0.9993403766077829
5.904999999999896,0.82,1.0008193453432375
5.909999999999896,0.82,1.0029098872051396
5.914999999999896,1.12,1.0056296847757074
5.919999999999896,1.12,1.009243561083494
5.924999999999896,0.9,1.0127794990227938
5.929999999999896,0.9,1.0137216547986965
5.934999999999896,0.91,1.012673167233695
5.939999999999896,0.91,1.013710101844867
5.9449999999998955,1.18,1.0174172559918493
5.949999999999895,1.18,1.02014989768947
5.954999999999895,1.03,1.0210112885312923
5.959999999999895,1.03,1.022850645759798
5.964999999999895,0.96,1.0273078809153846
5.969999999999895,0.96,1.0323517815191252
5.974999999999895,1.22,1.0338633867086644
5.979999999999895,1.22,1.030600793585069
5.984999999999895,0.68,1.0261444517343368
5.9899999999998945,0.68,1.0241657400436408
5.994999999999894,1.23,1.0244141738504053
5.999999999999894,1.23,1.0252279490266052
6.004999999999894,1.07,1.0282239682452945
6.009999999999894,1.07,1.0352139921773995
6.014999999999894,0.76,1.04336722539587
6.019999999999894,0.76,1.0484292858846112
6.024999999999894,1.4,1.0477672231829087
6.029999999999894,1.4,1.0412225951969425
6.034999999999894,0.76,1.0330343517149527
6.0399999999998935,0.76,1.0284613918758818
6.044999999999893,1.54,1.0279613736913114
6.049999999999893,1.54,1.0287223923743398
6.054999999999893,0.72,1.0297493720117492
6.059999999999893,0.72,1.0304758751961
6.064999999999893,0.85,1.0296546568597893
6.069999999999893,0.85,1.02827352642435
6.074999999999893,1.41,1.0274360507711655
6.079999999999893,1.41,1.0259222729834974
6.0849999999998925,0.69,1.0244833904624624
6.089999999999892,0.69,1.0275392130415397
6.094999999999892,1.39,1.0384040937344112
6.099999999999892,1.39,1.0538855492166523
6.104999999999892,0.95,1.0669127955197728
6.109999999999892,0.95,1.0742462914013704
6.114999999999892,0.86,1.0760813849824682
6.119999999999892,0.86,1.0746094599881202
6.124999999999892,1.24,1.0739392686289764
6.1299999999998915,1.24,1.0773084466438223
6.134999999999891,1.27,1.090636949584269
6.139999999999891,1.27,1.1215885361342957
6.144999999999891,0.94,1.173893181606603
6.149999999999891,0.94,1.242946863400612
6.154999999999891,0.89,1.3198042907645755
6.159999999999891,0.89,1.3986335536495924
6.164999999999891,1.34,1.4797359791696971
6.169999999999891,1.34,1.5693248836696743
6.174999999999891,1.96,1.674776918688671
6.1799999999998905,1.96,1.7987380579677257
6.18499999999989,2.24,1.9356671910419867
6.18999999999989,2.24,2.071480073781197
6.19499999999989,1.98,2.1961900744548193
6.19999999999989,1.98,2.3145344862413264
6.20499999999989,1.28,2.3995553822575695
6.20999999999989,1.28,2.435677199435294
6.21499999999989,4.09,2.455016604944267
6.21999999999989,4.09,2.47486312302925
6.2249999999998895,4.09,2.5009458332335273
6.229999999999889,4.09,2.5452705486329728
6.234999999999889,4.09,2.6483584121130628
6.239999999999889,4.09,2.8593184226132538
6.244999999999889,2.44,2.996329317998947
6.249999999999889,2.44,2.907555514687967
6.254999999999889,2.77,2.751866566621648
6.259999999999889,2.77,2.5905769615726335
6.264999999999889,2.63,2.4467031896793507
6.2699999999998886,2.63,2.3336660427476494
6.2749999999998884,1.9,2.2512527947063896
6.279999999999888,1.9,2.192253504524997
6.284999999999888,1.17,2.1457518255944574
6.289999999999888,1.17,2.099983486263114
6.294999999999888,1.73,2.047011725492199
6.299999999999888,1.73,1.9889597347671228
6.304999999999888,2.26,1.9327467846242012
6.309999999999888,2.26,1.8832060948316725
6.314999999999888,2.41,1.8418529200283016
6.3199999999998875,2.41,1.806728710976349
6.324999999999887,1.72,1.7737466474711012
6.329999999999887,1.72,1.7419965419922743
6.334999999999887,0.77,1.7123931585812993
6.339999999999887,0.77,1.6833094309537977
6.344999999999887,1.35,1.653111359334696
6.349999999999887,1.35,1.6247969687418378
6.354999999999887,1.51,1.6064968666641077
6.359999999999887,1.51,1.6048056586351969
6.3649999999998865,2.54,1.6241713591752072
6.369999999999886,2.54,1.6652861854879155
6.374999999999886,1.65,1.7216286686039708
6.379999999999886,1.65,1.7822900038438738
6.384999999999886,1.71,1.8389527621491313
6.389999999999886,1.71,1.890911776333621
6.394999999999886,1.93,1.944661170264352
6.399999999999886,1.93,2.014260742794174
6.404999999999886,3.17,2.0702790995997207
6.409999999999886,3.17,2.0920662293937218
6.4149999999998855,0.56,2.1191416232597082
6.419999999999885,0.56,2.1549394669319466
6.424999999999885,0.71,2.183213207522954
6.429999999999885,0.71,2.1935147299277196
6.434999999999885,4.09,2.200224361617211
6.439999999999885,4.09,2.2523746142849115
6.444999999999885,2.33,2.286839739310658
6.449999999999885,2.33,2.1598500968814984
6.454999999999885,4.09,1.9835057053380756
6.4599999999998845,4.09,1.8130816727573296
6.464999999999884,0.79,1.6871461563678813
6.469999999999884,0.79,1.6391939371617457
6.474999999999884,1.35,1.645142631860155
6.479999999999884,1.35,1.6675433048561203
6.484999999999884,0.89,1.683707806731475
6.489999999999884,0.89,1.716676034828495
6.494999999999884,4.09,1.8214320575033551
6.499999999999884,4.09,1.9817778771165784
6.5049999999998835,2.22,2.153183166375565
6.509999999999883,2.22,2.333750374246623
6.514999999999883,3.17,2.527039323587204
6.519999999999883,3.17,2.727197121409764
6.524999999999883,2.12,2.9228237926359655
6.529999999999883,2.12,3.098205835587412
6.534999999999883,1.8,3.238631494137449
6.539999999999883,1.8,3.346475375415863
6.544999999999883,4.09,3.441198642852041
6.549999999999883,4.09,3.53562846794261
6.5549999999998825,4.09,3.626408500181345
6.559999999999882,4.09,3.6939831972216868
6.564999999999882,4.09,3.7082532245167457
6.569999999999882,4.09,3.685308318913014
6.574999999999882,2.89,3.67082646135418
6.579999999999882,2.89,3.665538542193033
6.584999999999882,1.03,3.6633360182901504
6.589999999999882,1.03,3.659306020091973
6.594999999999882,1.94,3.6536041225157114
6.5999999999998815,1.94,3.653495519369828
6.604999999999881,3.45,3.668222882468417
6.609999999999881,3.45,3.7091261298756546
6.614999999999881,4.09,3.78129306407502
6.619999999999881,4.09,3.8625216683194226
6.624999999999881,4.09,3.927139015106222
6.629999999999881,4.09,3.9782272124324485
6.634999999999881,1.78,4.022016589581105
6.639999999999881,1.78,4.048226941961546
6.644999999999881,4.09,4.010363486157495
6.6499999999998805,4.09,3.8774329027009125
6.65499999999988,4.09,3.692393279036524
6.65999999999988,4.09,3.5067269406539587
6.66499999999988,0.46,3.3355310776487674
6.66999999999988,0.46,3.169125732570629
6.67499999999988,4.0,3.0053805920224543
6.67999999999988,4.0,2.850157448841891
6.68499999999988,2.05,2.6974029005456392
6.68999999999988,2.05,2.526433541575951
6.6949999999998795,1.74,2.3621224838877213
6.699999999999879,1.74,2.2988873888725148
6.704999999999879,2.05,2.3775781200838146
6.709999999999879,2.05,2.530486842898329
6.714999999999879,2.91,2.6507381508015837
6.719999999999879,2.91,2.6857476044490567
6.724999999999879,3.6,2.6878670682320127
6.729999999999879,3.6,2.6913829395568367
6.734999999999879,4.09,2.6958126347306663
6.7399999999998785,4.09,2.686953398039452
6.744999999999878,4.09,2.649243021869646
6.749999999999878,4.09,2.56507733935784
6.754999999999878,2.37,2.436766955216891
6.759999999999878,2.37,2.30721676598518
6.764999999999878,0.89,2.166642448718482
6.769999999999878,0.89,2.011216730647229
6.774999999999878,3.48,1.8809967715222766
6.779999999999878,3.48,1.7884096396215852
6.784999999999878,0.4,1.7119913116293568
6.7899999999998775,0.4,1.6346869275298348
6.794999999999877,1.26,1.543783491435639
6.799999999999877,1.26,1.4402276754128003
6.804999999999877,0.18,1.4066349827768176
6.809999999999877,0.18,1.4651030920479478
6.814999999999877,1.73,1.5524050671868361
6.819999999999877,1.73,1.6578084058263602
6.824999999999877,3.29,1.765895906661001
6.829999999999877,3.29,1.8565404418207176
6.8349999999998765,1.63,1.9221446185246296
6.839999999999876,1.63,1.9672025070391754
6.844999999999876,3.1,2.0016876706357998
6.849999999999876,3.1,2.0366118938682116
6.854999999999876,2.97,2.082741728030585
6.859999999999876,2.97,2.140523281563907
6.864999999999876,1.68,2.2022512817705735
6.869999999999876,1.68,2.2590281033709636
6.874999999999876,1.74,2.304960314701038
6.8799999999998755,1.74,2.336018779670626
6.884999999999875,2.54,2.354886851354664
6.889999999999875,2.54,2.373954180202307
6.894999999999875,2.84,2.3997644106165468
6.899999999999875,2.84,2.429634356718861
6.904999999999875,2.39,2.4577637359005093
6.909999999999875,2.39,2.471111535413254
6.914999999999875,2.7,2.4498029778550583
6.919999999999875,2.7,2.3811868605630147
6.924999999999875,2.4,2.268103299959582
6.9299999999998745,2.4,2.129399235297003
6.934999999999874,2.13,1.9858938433134685
6.939999999999874,2.13,1.8469405482478432
6.944999999999874,4.09,1.7093645923048975
6.949999999999874,4.09,1.5697269364893027
6.954999999999874,0.91,1.4384311337693914
6.959999999999874,0.91,1.329098998080449
6.964999999999874,0.91,1.2408490486956447
6.969999999999874,0.91,1.1654985987634063
6.9749999999998735,0.97,1.1095768507554298
6.979999999999873,0.97,1.0909305292700804
6.984999999999873,4.09,1.1099701910708262
6.989999999999873,4.09,1.1494322860608113
6.994999999999873,1.45,1.206846573179713
6.999999999999873,1.45,1.2894752622193422
7.004999999999873,1.11,1.3756447980800908
7.009999999999873,1.11,1.4438497666289352
7.014999999999873,4.09,1.493789087979388
7.019999999999873,4.09,1.5315628575112612
7.0249999999998725,4.09,1.5627830967193497
7.029999999999872,4.09,1.593689163979831
7.034999999999872,2.23,1.6332117323935287
7.039999999999872,2.23,1.6869300087695254
7.044999999999872,1.63,1.7510591531023447
7.049999999999872,1.63,1.803972675852232
7.054999999999872,1.45,1.828957905594453
7.059999999999872,1.45,1.8389089840703354
7.064999999999872,1.9,1.8448834404735233
7.0699999999998715,1.9,1.8442004728028287
7.074999999999871,2.16,1.8349993323706917
7.079999999999871,2.16,1.821846394523524
7.084999999999871,1.89,1.811322272420327
7.089999999999871,1.89,1.8020198707798496
7.094999999999871,3.15,1.7830246511752832
7.099999999999871,3.15,1.7458549026454127
7.104999999999871,1.63,1.6878950599065696
7.109999999999871,1.63,1.6122767676918908
7.1149999999998705,1.55,1.524706410306986
7.11999999999987,1.55,1.4309628363473144
7.12499999999987,1.72,1.3455642463847548
7.12999999999987,1.72,1.2888894587168092
7.13499999999987,0.7,1.2693760857575032
7.13999999999987,0.7,1.274527271641426
7.14499999999987,0.73,1.2884236502382762
7.14999999999987,0.73,1.3027014637395933
7.15499999999987,0.19,1.321170645616233
7.15999999999987,0.19,1.3537407394773684
7.1649999999998695,1.63,1.409127649815258
7.169999999999869,1.63,1.4920603881590522
7.174999999999869,1.6,1.5978648553611527
7.179999999999869,1.6,1.7102182927553713
7.184999999999869,1.87,1.8061218165451527
7.189999999999869,1.87,1.8695703503477263
7.194999999999869,2.59,1.896130471020263
7.199999999999869,2.59,1.8955895747910645
7.204999999999869,2.13,1.8841359700571363
7.2099999999998685,2.13,1.8686232826018663
7.214999999999868,2.06,1.842171367671173
7.219999999999868,2.06,1.795626577328319
7.224999999999868,1.11,1.723412811858489
7.229999999999868,1.11,1.6263276903143271
7.234999999999868,1.53,1.5132639681647722
7.239999999999868,1.53,1.3961744914323333
7.244999999999868,1.78,1.2830447417137933
7.249999999999868,1.78,1.1757143189122412
7.2549999999998676,0.77,1.0747877041830023
7.2599999999998674,0.77,0.9823725477862282
7.264999999999867,0.67,0.9074571358875975
7.269999999999867,0.67,0.8665895167840927
7.274999999999867,0.75,0.8681134882118928
7.279999999999867,0.75,0.8901427632392217
7.284999999999867,0.12,0.9070062016820024
7.289999999999867,0.12,0.9151872485694792
7.294999999999867,2.05,0.9189249796404182
7.299999999999867,2.05,0.9217860341452058
7.3049999999998665,1.73,0.9275270312795094
7.309999999999866,1.73,0.9406385706854324
7.314999999999866,1.05,0.9586276811620621
7.319999999999866,1.05,0.9664454907292765
7.324999999999866,0.93,0.9421709521913658
7.329999999999866,0.93,0.8839433036897377
7.334999999999866,0.27,0.8112307431525352
7.339999999999866,0.27,0.7396911704428236
7.344999999999866,0.79,0.6777966172459852
7.3499999999998655,0.79,0.6277900372504919
7.354999999999865,0.41,0.5890738002169454
7.359999999999865,0.41,0.5602857811851806
7.364999999999865,0.63,0.5425310596120402
7.369999999999865,0.63,0.5371457735880616
7.374999999999865,0.37,0.5418517370372519
7.379999999999865,0.37,0.5525401734589676
7.384999999999865,0.6,0.5675408983486327
7.389999999999865,0.6,0.5883973179563013
7.394999999999865,0.41,0.6135063901305241
7.3999999999998645,0.41,0.6377160236485393
7.404999999999864,0.86,0.6579308233552419
7.409999999999864,0.86,0.6762352933582926
7.414999999999864,0.7,0.6980364787262904
7.419999999999864,0.7,0.7258463695317743
7.424999999999864,1.05,0.7579728075375851
7.429999999999864,1.05,0.7915190250699137
7.434999999999864,0.44,0.822160848820739
7.439999999999864,0.44,0.8451921350148084
7.4449999999998635,0.72,0.8589272134285234
7.449999999999863,0.72,0.8663255229042538
7.454999999999863,1.4,0.8728253912182481
7.459999999999863,1.4,0.8813991635496317
7.464999999999863,0.93,0.8917457980243384
7.469999999999863,0.93,0.9033679124044589
7.474999999999863,0.85,0.9163390634706611
7.479999999999863,0.85,0.9273902602608933
7.484999999999863,0.83,0.932926203857812
7.4899999999998625,0.83,0.9342885194763014
7.494999999999862,0.99,0.934923882889819
7.499999999999862,0.99,0.9376661593478272
7.504999999999862,0.74,0.9449680101896298
7.509999999999862,0.74,0.9565138818876027
7.514999999999862,1.85,0.9704324708723436
7.519999999999862,1.85,0.9855398050597935
7.524999999999862,0.85,0.9997558382721757
7.529999999999862,0.85,1.01059049947418
7.534999999999862,1.01,1.0156316263034917
7.5399999999998615,1.01,1.013389955093433
7.544999999999861,1.12,1.0024185402007046
7.549999999999861,1.12,0.9808870018067389
7.554999999999861,1.04,0.948425848695893
7.559999999999861,1.04,0.9089006415279554
7.564999999999861,0.93,0.8695399674480003
7.569999999999861,0.93,0.8327962225877391
7.574999999999861,0.7,0.7950424357579674
7.579999999999861,0.7,0.7549960629080831
7.5849999999998605,0.67,0.716855702021844
7.58999999999986,0.67,0.6851803650393289
7.59499999999986,0.21,0.6616286876357171
7.59999999999986,0.21,0.6445543724114403
7.60499999999986,1.05,0.6302405747666091
7.60999999999986,1.05,0.6177582228861493
7.61499999999986,0.24,0.6100044862093202
7.61999999999986,0.24,0.6084271487802626
7.62499999999986,0.89,0.6105061284309636
7.62999999999986,0.89,0.613353467558895
7.6349999999998595,0.68,0.6137795343347416
7.639999999999859,0.68,0.6097616544175418
7.644999999999859,0.21,0.6039685612497786
7.649999999999859,0.21,0.601334056194222
7.654999999999859,0.97,0.6017060380819123
7.659999999999859,0.97,0.6002815575370425
7.664999999999859,0.41,0.5961720892961988
7.669999999999859,0.41,0.5948766119734182
7.674999999999859,0.48,0.6031952387344581
7.6799999999998585,0.48,0.6214082216360544
7.684999999999858,1.01,0.6422971227251398
7.689999999999858,1.01,0.659549741129959
7.694999999999858,0.11,0.6733062741981922
7.699999999999858,0.11,0.6875237365636361
7.704999999999858,0.83,0.7035386879417381
7.709999999999858,0.83,0.7188244230598821
7.714999999999858,1.16,0.7313752290638582
7.719999999999858,1.16,0.7421896133027114
7.7249999999998575,0.25,0.7523985450178077
7.729999999999857,0.25,0.7624493726937619
7.734999999999857,1.05,0.7727538021568496
7.739999999999857,1.05,0.7802444838267566
7.744999999999857,0.62,0.7808011174691373
7.749999999999857,0.62,0.7757709639419121
7.754999999999857,0.85,0.7684834947142019
7.759999999999857,0.85,0.7595197322885525
7.764999999999857,0.74,0.748434507218071
7.769999999999857,0.74,0.7342302683796679
7.7749999999998565,0.92,0.7186332601725159
7.779999999999856,0.92,0.7064696984642441
7.784999999999856,0.6,0.698334832647629
7.789999999999856,0.6,0.6896027405795137
7.794999999999856,0.42,0.6770407390417755
7.799999999999856,0.42,0.6621924110494063
7.804999999999856,0.67,0.6499049646013283
7.809999999999856,0.67,0.6433243060037029
7.814999999999856,0.88,0.6412064721887162
7.8199999999998555,0.88,0.6420294495479916
7.824999999999855,0.44,0.646117620382615
7.829999999999855,0.44,0.652181131149762
7.834999999999855,0.63,0.6570577151350692
7.839999999999855,0.63,0.6591910875120788
7.844999999999855,0.95,0.6594310067324883
7.849999999999855,0.95,0.659830905221123
7.854999999999855,0.27,0.6602385691342735
7.859999999999855,0.27,0.6585453356982554
7.8649999999998546,0.88,0.6530043260360446
7.8699999999998544,0.88,0.6424583137463832
7.874999999999854,0.6,0.6279324309192178
7.879999999999854,0.6,0.6126124928936534
7.884999999999854,0.77,0.5978002737721517
7.889999999999854,0.77,0.5836303833348628
7.894999999999854,0.39,0.5717254715943805
7.899999999999854,0.39,0.5618787772101035
7.904999999999854,0.4,0.5528723705488682
7.909999999999854,0.4,0.5455562280776035
7.9149999999998535,0.72,0.5396286002703835
7.919999999999853,0.72,0.5330812911988058
7.924999999999853,0.21,0.5253529316952101
7.929999999999853,0.21,0.5182641814947443
7.934999999999853,0.94,0.515003269009777
7.939999999999853,0.94,0.5168139539964691
7.944999999999853,0.53,0.5226112668464007
7.949999999999853,0.53,0.5311892212851248
7.954999999999853,0.27,0.5408672514322544
7.9599999999998525,0.27,0.5502592164159306
7.964999999999852,0.46,0.5586268982451926
7.969999999999852,0.46,0.5650694484450244
7.974999999999852,0.7,0.5720109462163644
7.979999999999852,0.7,0.5850552374934694
7.984999999999852,0.74,0.605279359269134
7.989999999999852,0.74,0.6274890033156213
7.994999999999852,0.57,0.6459154546662021
7.999999999999852,0.57,0.6578082463265968
8.004999999999852,0.63,0.6641413676408764
8.009999999999852,0.63,0.6674809310728332
8.014999999999853,0.94,0.6680296866091163
8.019999999999854,0.94,0.6660608251360001
8.024999999999855,0.44,0.664875749578449
8.029999999999855,0.44,0.6659715566302834
8.034999999999856,0.63,0.6665565860045317
8.039999999999857,0.63,0.6636210896569777
8.044999999999858,0.89,0.6581024764704484
8.049999999999859,0.89,0.6529472695166875
8.05499999999986,0.34,0.6487755871382983
8.05999999999986,0.34,0.644751064208818
8.064999999999861,0.99,0.6403300201312909
8.069999999999862,0.99,0.6340166455379699
8.074999999999863,0.36,0.6242847517367119
8.079999999999863,0.36,0.6119222764041448
8.084999999999864,0.82,0.5984471280848169
8.089999999999865,0.82,0.5856465698609769
8.094999999999866,0.45,0.5761589333691448
8.099999999999866,0.45,0.5703534433678675
8.104999999999867,0.52,0.5679006595672823
8.109999999999868,0.52,0.5702708519722495
8.114999999999869,0.58,0.5763176994807341
8.11999999999987,0.58,0.5819738784963927
8.12499999999987,0.37,0.587119099977706
8.129999999999871,0.37,0.5960572672922635
8.134999999999872,0.89,0.6118677387741984
8.139999999999873,0.89,0.6325477057604597
8.144999999999873,0.69,0.6517223793794675
8.149999999999874,0.69,0.665077123593499
8.154999999999875,0.41,0.6727844467840153
8.159999999999876,0.41,0.675816209811991
8.164999999999877,0.97,0.673474266680895
8.169999999999877,0.97,0.6660495760737298
8.174999999999878,0.81,0.6576934566139726
8.179999999999879,0.81,0.6530438575455765
8.18499999999988,0.28,0.6511337099878298
8.18999999999988,0.28,0.6463542551233573
8.194999999999881,0.8,0.6354120719070984
8.199999999999882,0.8,0.6194141568822628
8.204999999999883,0.39,0.6024400177292241
8.209999999999884,0.39,0.5895331502534435
8.214999999999884,0.99,0.5829325753976514
8.219999999999885,0.99,0.5815309242642546
8.224999999999886,0.26,0.5847106646555607
8.229999999999887,0.26,0.5907934809774218
8.234999999999888,0.57,0.5962702034561239
8.239999999999888,0.57,0.6009464646600072
8.244999999999889,0.74,0.6071994200837891
8.24999999999989,0.74,0.6151596261300837
8.25499999999989,0.36,0.623551381701996
8.259999999999891,0.36,0.633140089761173
8.264999999999892,1.08,0.6452865173852349
8.269999999999893,1.08,0.65770293066055
8.274999999999894,0.47,0.665666993917534
8.279999999999895,0.47,0.6679449082263964
8.284999999999895,0.79,0.66620582862619
8.289999999999896,0.79,0.6617681637475489
8.294999999999897,0.6,0.6549728392537666
8.299999999999898,0.6,0.6457194449444907
8.304999999999898,0.74,0.6371389569591263
8.3099999999999,0.74,0.6345133012047819
8.3149999999999,0.48,0.6379779711138062
8.3199999999999,0.48,0.6419743815759154
8.324999999999902,0.59,0.6431808377283053
8.329999999999902,0.59,0.6430316619670766
8.334999999999903,0.59,0.6431353673261277
8.339999999999904,0.59,0.6427482394172291
8.344999999999905,1.01,0.6395038808811978
8.349999999999905,1.01,0.6331023691034097
8.354999999999906,0.46,0.6263590028584551
8.359999999999907,0.46,0.6204364305161688
8.364999999999908,0.73,0.6134237973520796
8.369999999999909,0.73,0.604540571586822
8.37499999999991,0.56,0.5957073715221651
8.37999999999991,0.56,0.5886383505442183
8.384999999999911,0.17,0.5831752842837734
8.389999999999912,0.17,0.5788841551911175
8.394999999999913,0.91,0.5757480000739635
8.399999999999913,0.91,0.5730132009648184
8.404999999999914,0.42,0.5705923598228174
8.409999999999915,0.42,0.5700712193715138
8.414999999999916,0.83,0.5712235637682512
8.419999999999916,0.83,0.5712799339167335
8.424999999999917,0.46,0.5678960886788053
8.429999999999918,0.46,0.5606851816885959
8.434999999999919,0.48,0.5517640957929193
8.43999999999992,0.48,0.5449759872432448
8.44499999999992,0.64,0.5413531634622181
8.449999999999921,0.64,0.5387112352009796
8.454999999999922,0.29,0.5383553188561363
8.459999999999923,0.29,0.5447901182287893
8.464999999999923,0.65,0.5598151246229309
8.469999999999924,0.65,0.5798955791244359
8.474999999999925,0.68,0.5983260823064995
8.479999999999926,0.68,0.6114104563026214
8.484999999999927,0.35,0.6199711615634633
8.489999999999927,0.35,0.6260097599081205
8.494999999999928,1.11,0.6303791519079861
8.499999999999929,1.11,0.6334240656044849
8.50499999999993,0.71,0.6372740686150921
8.50999999999993,0.71,0.6444156511477465
8.514999999999931,0.31,0.6535258266586451
8.519999999999932,0.31,0.6603939766790394
8.524999999999933,0.72,0.6628976275536507
8.529999999999934,0.72,0.6613135812017622
8.534999999999934,0.53,0.6576063376823629
8.539999999999935,0.53,0.6556094202195988
8.544999999999936,1.08,0.656758528303119
8.549999999999937,1.08,0.6586548061705596
8.554999999999938,0.47,0.6597122836098865
8.559999999999938,0.47,0.6592220674872328
8.564999999999939,0.76,0.6560650266280873
8.56999999999994,0.76,0.6512768896114371
8.57499999999994,0.66,0.6471793987643936
8.579999999999941,0.66,0.6441808006781278
8.584999999999942,0.26,0.64161245033063
8.589999999999943,0.26,0.6398505169161979
8.594999999999944,0.9,0.6391303840871442
8.599999999999945,0.9,0.6378857719432381
8.604999999999945,0.57,0.6351911589532488
8.609999999999946,0.57,0.6327596053348742
8.614999999999947,0.8,0.6313785958845503
8.619999999999948,0.8,0.630041766986948
8.624999999999948,0.58,0.6307744986548947
8.62999999999995,0.58,0.6378373027748715
8.63499999999995,0.51,0.6561754753525949
8.63999999999995,0.51,0.6918270184603759
8.644999999999952,0.64,0.7479050926907859
8.649999999999952,0.64,0.8193740971736753
8.654999999999953,0.37,0.8960052122701667
8.659999999999954,0.37,0.9703339469455775
8.664999999999955,1.22,1.0403897501778474
8.669999999999956,1.22,1.1075446931585848
8.674999999999956,1.88,1.1728628816646134
8.679999999999957,1.88,1.2337596968085534
8.684999999999958,1.58,1.2835793618375368
8.689999999999959,1.58,1.3178491603522142
8.69499999999996,1.31,1.3392182328594648
8.69999999999996,1.31,1.3529583721029725
8.704999999999961,1.3,1.3638402873185451
8.709999999999962,1.3,1.376884636402308
8.714999999999963,0.49,1.3952298210582068
8.719999999999963,0.49,1.420629748476327
8.724999999999964,1.24,1.4527118181184062
8.729999999999965,1.24,1.488561706978987
8.734999999999966,1.71,1.5313835908619693
8.739999999999966,1.71,1.586362691296037
8.744999999999967,2.42,1.6515498758391556
8.749999999999968,2.42,1.721392491236615
8.754999999999969,0.87,1.7921333161092736
8.75999999999997,0.87,1.8594863316561145
8.76499999999997,1.82,1.918363819539453
8.769999999999971,1.82,1.9658149178446573
8.774999999999972,3.08,2.0010472348346706
8.779999999999973,3.08,2.0280961823127424
8.784999999999973,2.01,2.054501930062221
8.789999999999974,2.01,2.081428878788729
8.794999999999975,2.33,2.102991194014899
8.799999999999976,2.33,2.1097564963150766
8.804999999999977,2.15,2.097070178032321
8.809999999999977,2.15,2.067420301871058
8.814999999999978,2.21,2.023575127380442
8.819999999999979,2.21,1.9708798018875646
8.82499999999998,1.83,1.91277940258511
8.82999999999998,1.83,1.847405656509984
8.834999999999981,1.54,1.7784490052144242
8.839999999999982,1.54,1.729548949843409
8.844999999999983,1.83,1.7468525203438778
8.849999999999984,1.83,1.8382183746694398
8.854999999999984,1.19,1.956159880646943
8.859999999999985,1.19,2.081678169346161
8.864999999999986,1.12,2.218449547494072
8.869999999999987,1.12,2.3605920952454458
8.874999999999988,3.5,2.4997058877143403
8.879999999999988,3.5,2.6384994658078473
8.88499999999999,3.02,2.7886829493837566
8.88999999999999,3.02,2.9608898566637567
8.89499999999999,1.68,3.149438860857242
8.899999999999991,1.68,3.3163546976291545
8.904999999999992,3.64,3.417783723825555
8.909999999999993,3.64,3.4245164236626207
8.914999999999994,3.56,3.3453947168001026
8.919999999999995,3.56,3.2368810097741307
8.924999999999995,4.01,3.1326982872286018
8.929999999999996,4.01,3.030681476949152
8.934999999999997,1.42,2.908318643365168
8.939999999999998,1.42,2.764400984141175
8.944999999999999,1.53,2.620761614563068
8.95,1.53,2.4794524482758877
8.955,2.65,2.326183588196475
8.96,2.65,2.179288120425321
8.965000000000002,1.86,2.0900524058233567
8.970000000000002,1.86,2.056714094450077
8.975000000000003,1.05,2.04077721830918
8.980000000000004,1.05,2.026654302889187
8.985000000000005,2.34,2.0123451790882854
8.990000000000006,2.34,1.999206601751445
8.995000000000006,2.03,1.9884000397165225
9.000000000000007,2.03,1.9826321760641907
9.005000000000008,1.7,1.9816474521587248
9.010000000000009,1.7,1.9776626873249488
9.01500000000001,2.16,1.9710911166135343
9.02000000000001,2.16,1.970923521989824
9.025000000000011,2.0,1.9807750793627392
9.030000000000012,2.0,2.0016623885232514
9.035000000000013,0.99,2.030760086444272
9.040000000000013,0.99,2.056099019757179
9.045000000000014,1.88,2.066118290687869
9.050000000000015,1.88,2.0603321328349304
9.055000000000016,2.72,2.0434654523727396
9.060000000000016,2.72,2.02323199513083
9.065000000000017,3.57,2.0052723866233078
9.070000000000018,3.57,1.9860190201393484
9.075000000000019,2.13,1.956443909629643
9.08000000000002,2.13,1.912624946978763
9.08500000000002,1.77,1.8553123070851827
9.090000000000021,1.77,1.7806037454623478
9.095000000000022,1.58,1.6876395512032374
9.100000000000023,1.58,1.5939617658788123
9.105000000000024,1.31,1.5232367829011626
9.110000000000024,1.31,1.49261756014447
9.115000000000025,1.42,1.5080678451040617
9.120000000000026,1.42,1.5499592245087384
9.125000000000027,3.08,1.590471382072609
9.130000000000027,3.08,1.622410992491717
9.135000000000028,1.0,1.654727837845209
9.140000000000029,1.0,1.693706299922331
9.14500000000003,2.61,1.736458509556699
9.15000000000003,2.61,1.7810406705501418
9.155000000000031,2.09,1.8259941707093066
9.160000000000032,2.09,1.8655406457407178
9.165000000000033,1.39,1.8886490774982443
9.170000000000034,1.39,1.8923548196972995
9.175000000000034,2.72,1.8909520809593408
9.180000000000035,2.72,1.902813419505096
9.185000000000036,1.57,1.9355115914850205
9.190000000000037,1.57,1.9778512046093404
9.195000000000038,1.76,2.018529047363257
9.200000000000038,1.76,2.0562604151676656
9.20500000000004,3.66,2.0918636335068084
9.21000000000004,3.66,2.125683618231415
9.21500000000004,2.83,2.160678951205171
9.220000000000041,2.83,2.202726895617413
9.225000000000042,2.29,2.2480894287172575
9.230000000000043,2.29,2.278236559132554
9.235000000000044,1.25,2.2791891404151405
9.240000000000045,1.25,2.2593458195223435
9.245000000000045,2.41,2.231333525592807
9.250000000000046,2.41,2.197554916881514
9.255000000000047,4.09,2.1573965977471126
9.260000000000048,4.09,2.1130542817212388
9.265000000000049,1.16,2.069097092074381
9.27000000000005,1.16,2.0254023646345054
9.27500000000005,2.47,1.975322409854223
9.28000000000005,2.47,1.9171087681087007
9.285000000000052,1.89,1.8554152505411723
9.290000000000052,1.89,1.7956092564809338
9.295000000000053,1.56,1.7425340468418082
9.300000000000054,1.56,1.6950798691917088
9.305000000000055,1.28,1.6507040459544038
9.310000000000056,1.28,1.610364793767722
9.315000000000056,1.61,1.5786682922894006
9.320000000000057,1.61,1.5581201836759873
9.325000000000058,1.54,1.5455005040529406
9.330000000000059,1.54,1.5369555721807258
9.33500000000006,2.68,1.531787220819585
9.34000000000006,2.68,1.5312243451325134
9.345000000000061,1.39,1.5365071236571417
9.350000000000062,1.39,1.5464437606433115
9.355000000000063,1.78,1.5570121918895483
9.360000000000063,1.78,1.566746114273487
9.365000000000064,0.82,1.5769499887721428
9.370000000000065,0.82,1.5868739673923657
9.375000000000066,1.64,1.5930559186763606
9.380000000000067,1.64,1.5928587906975713
9.385000000000067,1.9,1.5869600658178211
9.390000000000068,1.9,1.577217080271872
9.395000000000069,1.65,1.5628636477411506
9.40000000000007,1.65,1.543234877116738
9.40500000000007,1.6,1.5183492373964729
9.410000000000071,1.6,1.4874584853174921
9.415000000000072,1.19,1.4519266580545682
9.420000000000073,1.19,1.4148077155487306
9.425000000000074,1.37,1.3778334771178355
9.430000000000074,1.37,1.3429471579179537
9.435000000000075,1.15,1.3145420411951345
9.440000000000076,1.15,1.295392410662669
9.445000000000077,1.32,1.2851384667671895
9.450000000000077,1.32,1.2817535576699934
9.455000000000078,1.41,1.280858284864488
9.460000000000079,1.41,1.2787527906933385
9.46500000000008,0.98,1.275817929710132
9.47000000000008,0.98,1.273635641206683
9.475000000000081,1.58,1.268977600148762
9.480000000000082,1.58,1.2568964846521324
9.485000000000083,1.24,1.2377864013849498
9.490000000000084,1.24,1.2156840334373618
9.495000000000084,1.01,1.1915834319200997
9.500000000000085,1.01,1.1651888700198045
9.505000000000086,1.95,1.1384228657415927
9.510000000000087,1.95,1.1124556693560892
9.515000000000088,0.57,1.0868894224698344
9.520000000000088,0.57,1.0624397791313231
9.52500000000009,1.21,1.0393585025635852
9.53000000000009,1.21,1.016204886258063
9.53500000000009,0.77,0.9932672741981838
9.540000000000092,0.77,0.973987402020529
9.545000000000092,1.12,0.9634824276220514
9.550000000000093,1.12,0.9641819438914065
9.555000000000094,1.04,0.9694841244814082
9.560000000000095,1.04,0.9704409192824458
9.565000000000095,0.39,0.9658679375528514
9.570000000000096,0.39,0.9597826650618574
9.575000000000097,1.32,0.9529538454396966
9.580000000000098,1.32,0.9435370611851994
9.585000000000099,1.1,0.9325585341825883
9.5900000000001,1.1,0.9231993210117007
9.5950000000001,0.5,0.9151919193280343
9.600000000000101,0.5,0.9039155664458522
9.605000000000102,1.27,0.8842950676293252
9.610000000000102,1.27,0.8548755343541595
9.615000000000103,0.54,0.8195229113514446
9.620000000000104,0.54,0.785839242400549
9.625000000000105,1.03,0.7601080954541796
9.630000000000106,1.03,0.7420928913789534
9.635000000000106,0.55,0.7266976667287053
9.640000000000107,0.55,0.708719267920317
9.645000000000108,0.46,0.6865493162253514
9.650000000000109,0.46,0.6648206538605906
9.65500000000011,0.83,0.6509659576283884
9.66000000000011,0.83,0.647455724334722
9.665000000000111,0.69,0.6523027730445736
9.670000000000112,0.69,0.6648403099367128
9.675000000000113,0.46,0.6852783171535713
9.680000000000113,0.46,0.709832025151574
9.685000000000114,0.58,0.7315072559802414
9.690000000000115,0.58,0.7471392641718383
9.695000000000116,1.15,0.7595533208385252
9.700000000000117,1.15,0.7735583711852249
9.705000000000117,0.69,0.7900506899279922
9.710000000000118,0.69,0.8058523528677431
9.715000000000119,1.1,0.817981396817953
9.72000000000012,1.1,0.8244268295581068
9.72500000000012,0.54,0.8231690797708523
9.730000000000121,0.54,0.8143447952677974
9.735000000000122,1.02,0.801226402934347
9.740000000000123,1.02,0.7880152314863544
9.745000000000124,0.61,0.7759712914997358
9.750000000000124,0.61,0.762295349161251
9.755000000000125,0.81,0.7452821498034442
9.760000000000126,0.81,0.7275827041240075
9.765000000000127,0.7,0.713357642424548
9.770000000000127,0.7,0.7025921519535437
9.775000000000128,0.78,0.6910707854829093
9.780000000000129,0.78,0.6775633535800409
9.78500000000013,0.49,0.6650503880898709
9.79000000000013,0.49,0.6545417757615305
9.795000000000131,0.58,0.6440874944870963
9.800000000000132,0.58,0.6330297832847793
9.805000000000133,0.94,0.6222402966149604
9.810000000000134,0.94,0.6119677322921107
9.815000000000135,0.16,0.6005945660937729
9.820000000000135,0.16,0.5869026730090495
9.825000000000136,0.94,0.5718152419489737
9.830000000000137,0.94,0.5565592372779066
9.835000000000138,0.43,0.5421560015682511
9.840000000000138,0.43,0.5298297304070638
9.84500000000014,0.53,0.5190387362034616
9.85000000000014,0.53,0.5084137316869821
9.85500000000014,0.29,0.4964254173688026
9.860000000000142,0.29,0.481182649601366
9.865000000000142,0.53,0.46535416450493805
9.870000000000143,0.53,0.4557561184636699
9.875000000000144,0.71,0.4549082322370472
9.880000000000145,0.71,0.4587490857345055
9.885000000000145,0.14,0.4617787989909244
9.890000000000146,0.14,0.461242014983007
9.895000000000147,0.39,0.4566726311766661
9.900000000000148,0.39,0.44838580488597013
9.905000000000149,0.77,0.43782217689621766
9.91000000000015,0.77,0.4288268521288118
9.91500000000015,0.34,0.4257195349442905
9.920000000000151,0.34,0.4293992950675396
9.925000000000152,0.34,0.4368598135175988
9.930000000000152,0.34,0.44335958612402526
9.935000000000153,0.4,0.4475073354594911
9.940000000000154,0.4,0.45214022158787565
9.945000000000155,0.41,0.4586311588637386
9.950000000000156,0.41,0.4673406377921383
9.955000000000156,0.62,0.4807043067055537
9.960000000000157,0.62,0.5003834936441577
9.965000000000158,0.4,0.5245413332277497
9.970000000000159,0.4,0.5500295142378762
9.97500000000016,0.81,0.5758484963587698
9.98000000000016,0.81,0.6016783204869849
9.985000000000161,0.19,0.6272445084978925
9.990000000000162,0.19,0.6523391048023944
9.995000000000163,0.9,0.6771724109680667
10.000000000000163,0.9,0.7022584445168758
