time,voltage,lowess
0.005,0.34,2.2742815295721983
0.01,0.34,2.4051921698540792
0.015,2.57,2.535827476357505
0.02,2.57,2.666030367583141
0.025,4.09,2.7955325059094327
0.030000000000000002,4.09,2.9241997226528804
0.035,4.09,3.0520028575910754
0.04,4.09,3.179106107610259
0.045,3.34,3.306346069632405
0.049999999999999996,3.34,3.437381101399524
0.05499999999999999,4.09,3.5608256304947417
0.05999999999999999,4.09,3.6903142736524597
0.06499999999999999,4.09,3.8003663467318747
0.06999999999999999,4.09,3.879963412496332
0.075,4.09,3.946730121791247
0.08,4.09,4.005496171444007
0.085,4.04,4.049984356332318
0.09000000000000001,4.04,4.072700732143466
0.09500000000000001,4.09,4.078576023062544
0.10000000000000002,4.09,4.080115060915431
0.10500000000000002,4.09,4.081449965918947
0.11000000000000003,4.09,4.0830595086841805
0.11500000000000003,2.77,4.084848062000109
0.12000000000000004,2.77,4.086525145326406
0.12500000000000003,4.09,4.087837419285547
0.13000000000000003,4.09,4.088688661113985
0.13500000000000004,4.09,4.088963243677669
0.14000000000000004,4.09,4.088780185936295
0.14500000000000005,3.05,4.088509205458662
0.15000000000000005,3.05,4.088274565174695
0.15500000000000005,4.09,4.0881028750503425
0.16000000000000006,4.09,4.088008588377744
0.16500000000000006,4.08,4.087954552672006
0.17000000000000007,4.08,4.087906263334664
0.17500000000000007,4.09,4.087921214834253
0.18000000000000008,4.09,4.088094568574575
0.18500000000000008,4.09,4.088423004107521
0.19000000000000009,4.09,4.088795058683527
0.1950000000000001,4.09,4.0891252078284355
0.2000000000000001,4.09,4.089419655877245
0.2050000000000001,4.09,4.089696124955398
0.2100000000000001,4.09,4.089899811035023
0.2150000000000001,2.82,4.089985897472888
0.2200000000000001,2.82,4.09
0.22500000000000012,4.09,4.09
0.23000000000000012,4.09,4.09
0.23500000000000013,4.09,4.09
0.24000000000000013,4.09,4.09
0.24500000000000013,3.23,4.089999999999998
0.2500000000000001,3.23,4.0900000000000025
0.2550000000000001,4.09,4.090000000000001
0.2600000000000001,4.09,4.090000000000002
0.2650000000000001,4.09,4.089999999999999
0.27000000000000013,4.09,4.089999999999999
0.27500000000000013,4.09,4.090000000000002
0.28000000000000014,4.09,4.09
0.28500000000000014,4.09,4.090000000000001
0.29000000000000015,4.09,4.089999999999999
0.29500000000000015,4.09,4.089999999999998
0.30000000000000016,4.09,4.089999999999999
0.30500000000000016,4.09,4.090000000000001
0.31000000000000016,4.09,4.090000000000001
0.31500000000000017,3.06,4.089999999999999
0.3200000000000002,3.06,4.089716494360864
0.3250000000000002,4.09,4.088180086897486
0.3300000000000002,4.09,4.085185896262518
0.3350000000000002,4.09,4.081828815144947
0.3400000000000002,4.09,4.078903861810191
0.3450000000000002,2.71,4.076470450180925
0.3500000000000002,2.71,4.074451418024104
0.3550000000000002,4.09,4.073034065272321
0.3600000000000002,4.09,4.07228952136865
0.3650000000000002,3.99,4.071847321236737
0.3700000000000002,3.99,4.0713745620335615
0.3750000000000002,4.09,4.071394172593728
0.3800000000000002,4.09,4.072825531671129
0.38500000000000023,4.09,4.075719822322623
0.39000000000000024,4.09,4.079085783183154
0.39500000000000024,4.09,4.082110394286723
0.40000000000000024,4.09,4.084817080264739
0.40500000000000025,4.09,4.087326121493016
0.41000000000000025,4.09,4.0891323868003235
0.41500000000000026,2.72,4.0898792176146275
0.42000000000000026,2.72,4.09
0.42500000000000027,4.09,4.090000000000002
0.43000000000000027,4.09,4.09
0.4350000000000003,4.09,4.090000000000002
0.4400000000000003,4.09,4.090000000000001
0.4450000000000003,3.42,4.090000000000004
0.4500000000000003,3.42,4.089999999999999
0.4550000000000003,4.09,4.090000000000004
0.4600000000000003,4.09,4.0900000000000025
0.4650000000000003,4.09,4.090000000000001
0.4700000000000003,4.09,4.09
0.4750000000000003,4.09,4.090000000000003
0.4800000000000003,4.09,4.090000000000001
0.4850000000000003,4.09,4.09
0.4900000000000003,4.09,4.089999999999999
0.49500000000000033,4.09,4.089999999999998
0.5000000000000003,4.09,4.09
0.5050000000000003,4.09,4.0900000000000025
0.5100000000000003,4.09,4.089999999999999
0.5150000000000003,2.85,4.089999999999996
0.5200000000000004,2.85,4.089999999999998
0.5250000000000004,4.09,4.089999999999998
0.5300000000000004,4.09,4.09
0.5350000000000004,4.09,4.090000000000001
0.5400000000000004,4.09,4.09
0.5450000000000004,3.36,4.089999999999999
0.5500000000000004,3.36,4.089999999999999
0.5550000000000004,4.09,4.089999999999999
0.5600000000000004,4.09,4.09
0.5650000000000004,4.09,4.09
0.5700000000000004,4.09,4.09
0.5750000000000004,4.09,4.09
0.5800000000000004,4.09,4.09
0.5850000000000004,3.36,4.090000000000001
0.5900000000000004,3.36,4.089999999999997
0.5950000000000004,4.09,4.09
0.6000000000000004,4.09,4.090000000000001
0.6050000000000004,4.09,4.090000000000002
0.6100000000000004,4.09,4.090000000000001
0.6150000000000004,2.77,4.089999999999995
0.6200000000000004,2.77,4.089999999999994
0.6250000000000004,4.09,4.089999999999997
0.6300000000000004,4.09,4.090000000000003
0.6350000000000005,4.09,4.090000000000002
0.6400000000000005,4.09,4.089999999999995
0.6450000000000005,4.09,4.089999999999999
0.6500000000000005,4.09,4.090000000000001
0.6550000000000005,4.09,4.0900000000000025
0.6600000000000005,4.09,4.090000000000005
0.6650000000000005,4.09,4.089999999999999
0.6700000000000005,4.09,4.090000000000005
0.6750000000000005,4.09,4.090000000000001
0.6800000000000005,4.09,4.090000000000002
0.6850000000000005,2.98,4.090000000000001
0.6900000000000005,2.98,4.089999999999997
0.6950000000000005,4.09,4.090000000000004
0.7000000000000005,4.09,4.09
0.7050000000000005,4.09,4.089999999999998
0.7100000000000005,4.09,4.089999999999995
0.7150000000000005,3.07,4.090000000000001
0.7200000000000005,3.07,4.09
0.7250000000000005,4.09,4.089999999999995
0.7300000000000005,4.09,4.0899999999999945
0.7350000000000005,4.09,4.089999999999997
0.7400000000000005,4.09,4.089999999999995
0.7450000000000006,4.09,4.089999999999995
0.7500000000000006,4.09,4.090000000000001
0.7550000000000006,4.09,4.090000000000002
0.7600000000000006,4.09,4.0900000000000025
0.7650000000000006,4.09,4.090000000000003
0.7700000000000006,4.09,4.090000000000001
0.7750000000000006,4.09,4.090000000000002
0.7800000000000006,4.09,4.090000000000001
0.7850000000000006,2.65,4.09
0.7900000000000006,2.65,4.09
0.7950000000000006,4.09,4.089999999999996
0.8000000000000006,4.09,4.089999999999996
0.8050000000000006,4.09,4.089999999999999
0.8100000000000006,4.09,4.089999999999995
0.8150000000000006,4.09,4.090000000000008
0.8200000000000006,4.09,4.090000000000001
0.8250000000000006,4.09,4.09
0.8300000000000006,4.09,4.090000000000002
0.8350000000000006,4.09,4.090000000000001
0.8400000000000006,4.09,4.089999999999997
0.8450000000000006,4.09,4.0900000000000105
0.8500000000000006,4.09,4.089999999999996
0.8550000000000006,3.04,4.0899999999999945
0.8600000000000007,3.04,4.089999999999995
0.8650000000000007,4.09,4.089999999999995
0.8700000000000007,4.09,4.089999999999999
0.8750000000000007,4.09,4.089999999999998
0.8800000000000007,4.09,4.09
0.8850000000000007,3.52,4.089999999999997
0.8900000000000007,3.52,4.089999999999999
0.8950000000000007,4.09,4.090000000000001
0.9000000000000007,4.09,4.09
0.9050000000000007,4.09,4.09
0.9100000000000007,4.09,4.09
0.9150000000000007,4.09,4.090000000000002
0.9200000000000007,4.09,4.09
0.9250000000000007,3.38,4.090000000000001
0.9300000000000007,3.38,4.089673835874893
0.9350000000000007,4.09,4.087819108473681
0.9400000000000007,4.09,4.08409346453144
0.9450000000000007,4.09,4.07980719427226
0.9500000000000007,4.09,4.076029485962777
0.9550000000000007,2.81,4.072952685318536
0.9600000000000007,2.81,4.070510429763705
0.9650000000000007,4.09,4.0688741213296336
0.9700000000000008,4.09,4.068052217267069
0.9750000000000008,3.95,4.067538924923916
0.9800000000000008,3.95,4.0669027654955645
0.9850000000000008,4.09,4.066814225851083
0.9900000000000008,4.09,4.068483891428056
0.9950000000000008,4.09,4.07206226540541
1.0000000000000007,4.09,4.076340563200202
1.0050000000000006,4.09,4.080244539299362
1.0100000000000005,4.09,4.083718870044432
1.0150000000000003,4.09,4.08684308376154
1.0200000000000002,4.09,4.089006446766763
1.0250000000000001,2.84,4.089865909557199
1.03,2.84,4.089893325915598
1.035,4.09,4.089320639664488
1.0399999999999998,4.09,4.08824199704454
1.0449999999999997,4.09,4.087087800779373
1.0499999999999996,4.09,4.086086585413076
1.0549999999999995,3.64,4.085115807848242
1.0599999999999994,3.64,4.084078554929437
1.0649999999999993,4.09,4.083172329893986
1.0699999999999992,4.09,4.082680175985722
1.074999999999999,4.06,4.082561731109602
1.079999999999999,4.06,4.082543498443212
1.0849999999999989,4.09,4.082649024565088
1.0899999999999987,4.09,4.083165122561387
1.0949999999999986,3.34,4.084115962973015
1.0999999999999985,3.34,4.085203938884825
1.1049999999999984,4.09,4.086218958762096
1.1099999999999983,4.09,4.087237479398303
1.1149999999999982,4.09,4.088357777264467
1.119999999999998,4.09,4.0893707025868515
1.124999999999998,2.97,4.089901337596168
1.129999999999998,2.97,4.089986037077415
1.1349999999999978,4.09,4.0899002766007175
1.1399999999999977,4.09,4.089697005481728
1.1449999999999976,4.09,4.089420714973485
1.1499999999999975,4.09,4.089125847487588
1.1549999999999974,4.09,4.088794812842834
1.1599999999999973,4.09,4.088421291336413
1.1649999999999971,4.09,4.088088595529457
1.169999999999997,4.09,4.087906711795416
1.174999999999997,4.08,4.0878831437016565
1.1799999999999968,4.08,4.087928115189803
1.1849999999999967,4.09,4.087984228493304
1.1899999999999966,4.09,4.088084226949806
1.1949999999999965,3.0,4.088264991642879
1.1999999999999964,3.0,4.088509992678335
1.2049999999999963,4.09,4.088786628196354
1.2099999999999962,4.09,4.0887886809902
1.214999999999996,4.09,4.08766002547177
1.219999999999996,4.09,4.085281233841644
1.2249999999999959,3.55,4.082184036763645
1.2299999999999958,3.55,4.0786729382443445
1.2349999999999957,4.09,4.075259238249289
1.2399999999999956,4.09,4.072621667048989
1.2449999999999954,4.09,4.070951626718633
1.2499999999999953,4.09,4.069857819534683
1.2549999999999952,3.98,4.069168026741263
1.2599999999999951,3.98,4.0691689349296505
1.264999999999995,4.09,4.070151106232145
1.269999999999995,4.09,4.071985938271887
1.2749999999999948,4.09,4.074260870392648
1.2799999999999947,4.09,4.076873844234009
1.2849999999999946,4.09,4.080105120836069
1.2899999999999945,4.09,4.083749698990981
1.2949999999999944,3.45,4.086895204310563
1.2999999999999943,3.45,4.088908424594777
1.3049999999999942,4.09,4.089813172073952
1.309999999999994,4.09,4.09
1.314999999999994,4.09,4.090000000000001
1.3199999999999938,4.09,4.089999999999987
1.3249999999999937,3.63,4.09
1.3299999999999936,3.63,4.090000000000016
1.3349999999999935,4.09,4.089999999999977
1.3399999999999934,4.09,4.089999999999984
1.3449999999999933,4.09,4.089999999999994
1.3499999999999932,4.09,4.089999999999976
1.354999999999993,4.09,4.0900000000000025
1.359999999999993,4.09,4.089999999999998
1.3649999999999929,4.09,4.089999999999999
1.3699999999999928,4.09,4.089999999999994
1.3749999999999927,4.09,4.09
1.3799999999999926,4.09,4.090000000000013
1.3849999999999925,4.09,4.089999999999995
1.3899999999999924,4.09,4.089999999999998
1.3949999999999922,3.5,4.09
1.3999999999999921,3.5,4.09
1.404999999999992,4.09,4.09
1.409999999999992,4.09,4.089999999999999
1.4149999999999918,4.09,4.09
1.4199999999999917,4.09,4.090000000000003
1.4249999999999916,4.09,4.089999999999997
1.4299999999999915,4.09,4.09
1.4349999999999914,4.09,4.0900000000000025
1.4399999999999913,4.09,4.090000000000008
1.4449999999999912,4.09,4.0899999999999865
1.449999999999991,4.09,4.090000000000001
1.454999999999991,4.09,4.090000000000024
1.4599999999999909,4.09,4.090000000000015
1.4649999999999908,3.62,4.090000000000003
1.4699999999999906,3.62,4.089999999999994
1.4749999999999905,4.09,4.090000000000008
1.4799999999999904,4.09,4.090000000000012
1.4849999999999903,4.09,4.089999999999991
1.4899999999999902,4.09,4.089999999999994
1.4949999999999901,3.01,4.090000000000003
1.49999999999999,3.01,4.090000000000023
1.50499999999999,4.09,4.08999999999999
1.5099999999999898,4.09,4.090000000000002
1.5149999999999897,3.17,4.0900000000000105
1.5199999999999896,3.17,4.09
1.5249999999999895,4.09,4.0900000000000025
1.5299999999999894,4.09,4.090000000000007
1.5349999999999893,3.51,4.089999999999994
1.5399999999999892,3.51,4.089725197126089
1.544999999999989,4.09,4.088276489588814
1.549999999999989,4.09,4.085305023562296
1.5549999999999888,4.09,4.080946431351443
1.5599999999999887,4.09,4.076049113175364
1.5649999999999886,2.99,4.072004099656496
1.5699999999999885,2.99,4.06907323676933
1.5749999999999884,4.09,4.067178338370419
1.5799999999999883,4.09,4.066241527378651
1.5849999999999882,3.87,4.065698880541468
1.589999999999988,3.87,4.065158274779702
1.594999999999988,4.09,4.065300840845099
1.5999999999999879,4.09,4.067221208887148
1.6049999999999878,4.09,4.071056287708467
1.6099999999999877,4.09,4.075673609460607
1.6149999999999876,4.09,4.079945441172172
1.6199999999999875,4.09,4.083701991619553
1.6249999999999873,4.09,4.086941771621372
1.6299999999999872,4.09,4.089064615425725
1.6349999999999871,3.68,4.089872501382172
1.639999999999987,3.68,4.0900000000000185
1.644999999999987,4.09,4.090000000000005
1.6499999999999868,4.09,4.09
1.6549999999999867,4.09,4.09
1.6599999999999866,4.09,4.09
1.6649999999999865,3.53,4.090000000000008
1.6699999999999864,3.53,4.08999999999997
1.6749999999999863,4.09,4.090000000000002
1.6799999999999862,4.09,4.08999999999999
1.684999999999986,4.09,4.090000000000007
1.689999999999986,4.09,4.089999999999977
1.6949999999999859,4.09,4.089999999999988
1.6999999999999857,4.09,4.089999999999994
1.7049999999999856,4.09,4.089999999999999
1.7099999999999855,4.09,4.090000000000008
1.7149999999999854,4.09,4.090000000000009
1.7199999999999853,4.09,4.089999999999992
1.7249999999999852,4.09,4.089999999999998
1.729999999999985,4.09,4.08999999999999
1.734999999999985,2.91,4.0900000000000105
1.739999999999985,2.91,4.090000000000004
1.7449999999999848,4.09,4.089999999999997
1.7499999999999847,4.09,4.089999999999998
1.7549999999999846,4.09,4.090000000000002
1.7599999999999845,4.09,4.089919924253865
1.7649999999999844,3.69,4.08952933181886
1.7699999999999843,3.69,4.088690080463245
1.7749999999999841,4.09,4.087454316532363
1.779999999999984,4.09,4.086093375199946
1.784999999999984,4.09,4.084935385409611
1.7899999999999838,4.09,4.0840208491718135
1.7949999999999837,4.09,4.083217098782097
1.7999999999999836,4.09,4.08256501377061
1.8049999999999835,4.05,4.08222169763611
1.8099999999999834,4.05,4.082230904835082
1.8149999999999833,4.09,4.082489768170414
1.8199999999999832,4.09,4.082907641891274
1.824999999999983,4.09,4.083489111182779
1.829999999999983,4.09,4.084297574365236
1.8349999999999829,3.1,4.085383945696331
1.8399999999999828,3.1,4.0867165760184925
1.8449999999999827,4.09,4.088129589267161
1.8499999999999825,4.09,4.08929930679259
1.8549999999999824,4.09,4.089888090216366
1.8599999999999823,4.09,4.090000000000005
1.8649999999999822,4.09,4.090000000000013
1.8699999999999821,4.09,4.090000000000002
1.874999999999982,4.09,4.09
1.879999999999982,4.09,4.090000000000003
1.8849999999999818,4.09,4.090000000000022
1.8899999999999817,4.09,4.09
1.8949999999999816,4.09,4.090000000000006
1.8999999999999815,4.09,4.089999999999994
1.9049999999999814,2.61,4.09
1.9099999999999813,2.61,4.090000000000001
1.9149999999999812,4.09,4.08999999999999
1.919999999999981,4.09,4.089999999999981
1.924999999999981,4.09,4.089999999999998
1.9299999999999808,4.09,4.089998251399637
1.9349999999999807,4.09,4.089984830815407
1.9399999999999806,4.09,4.089936180225187
1.9449999999999805,4.09,4.089835538952508
1.9499999999999804,4.09,4.089707836922418
1.9549999999999803,4.09,4.089603892163252
1.9599999999999802,4.09,4.089543821092102
1.96499999999998,4.09,4.089508397649231
1.96999999999998,4.09,4.089484119273352
1.9749999999999799,3.75,4.08947434376011
1.9799999999999798,3.75,4.089477054374299
1.9849999999999797,4.09,4.089482049705248
1.9899999999999796,4.09,4.0894843832738115
1.9949999999999795,4.09,4.089491058522321
1.9999999999999793,4.09,4.089522665300153
2.0049999999999795,3.4,4.089601436480906
2.0099999999999794,3.4,4.089724473696018
2.0149999999999793,4.09,4.0898538483172215
2.019999999999979,4.09,4.089947981848565
2.024999999999979,4.09,4.089991779554668
2.029999999999979,4.09,4.089924212002753
2.034999999999979,4.09,4.089405184756329
2.0399999999999787,4.09,4.087795560142254
2.0449999999999786,4.09,4.08482881020631
2.0499999999999785,4.09,4.081336279779229
2.0549999999999784,4.09,4.078541676652665
2.0599999999999783,4.09,4.076928487315827
2.064999999999978,4.09,4.076278343921308
2.069999999999978,4.09,4.076185411816253
2.074999999999978,3.86,4.076272429194509
2.079999999999978,3.86,4.076272804871412
2.0849999999999778,4.09,4.0761861166700335
2.0899999999999777,4.09,4.076278183806625
2.0949999999999775,4.09,4.076925605699114
2.0999999999999774,4.09,4.078506275753465
2.1049999999999773,4.09,4.0811387498782405
2.1099999999999772,4.09,4.0843634640998765
2.114999999999977,4.09,4.087269611465206
2.119999999999977,4.09,4.089137924374196
2.124999999999977,4.09,4.089879243743095
2.129999999999977,4.09,4.090000000000001
2.1349999999999767,4.09,4.090000000000001
2.1399999999999766,4.09,4.089999999999999
2.1449999999999765,4.09,4.09
2.1499999999999764,4.09,4.09
2.1549999999999763,4.09,4.09
2.159999999999976,4.09,4.09
2.164999999999976,4.09,4.090000000000001
2.169999999999976,4.09,4.089999999999999
2.174999999999976,4.09,4.089999999999998
2.1799999999999757,4.09,4.089999999999998
2.1849999999999756,4.09,4.089999999999998
2.1899999999999755,4.09,4.089999999999999
2.1949999999999754,4.09,4.089999999999998
2.1999999999999753,4.09,4.089999999999998
2.204999999999975,4.09,4.09
2.209999999999975,4.09,4.09
2.214999999999975,4.09,4.089999999999998
2.219999999999975,4.09,4.089999999999998
2.2249999999999748,4.09,4.089999999999999
2.2299999999999747,4.09,4.089999999999998
2.2349999999999746,4.09,4.089999999999999
2.2399999999999745,4.09,4.089999999999999
2.2449999999999743,4.09,4.089999999999998
2.2499999999999742,4.09,4.089999999999998
2.254999999999974,4.09,4.089999999999998
2.259999999999974,4.09,4.09
2.264999999999974,4.09,4.09
2.269999999999974,4.09,4.089999999999998
2.2749999999999737,4.09,4.089999999999999
2.2799999999999736,4.09,4.089999999999999
2.2849999999999735,4.09,4.089999999999999
2.2899999999999734,4.09,4.089999999999998
2.2949999999999733,4.09,4.09
2.299999999999973,4.09,4.09
2.304999999999973,4.09,4.09
2.309999999999973,4.09,4.089999999999999
2.314999999999973,4.09,4.089999999999999
2.3199999999999728,4.09,4.089999999999998
2.3249999999999726,4.09,4.089999999999999
2.3299999999999725,4.09,4.089999999999999
2.3349999999999724,4.09,4.089999999999999
2.3399999999999723,4.09,4.09
2.344999999999972,4.09,4.089999999999999
2.349999999999972,4.09,4.09
2.354999999999972,4.09,4.09
2.359999999999972,4.09,4.09
2.364999999999972,4.09,4.089999999999999
2.3699999999999717,4.09,4.089833546650316
2.3749999999999716,4.09,4.08882876509199
2.3799999999999715,4.09,4.086387299800202
2.3849999999999714,4.09,4.082746393086532
2.3899999999999713,4.09,4.078787223759232
2.394999999999971,4.09,4.075473151729295
2.399999999999971,4.09,4.073303982935527
2.404999999999971,4.09,4.072227049998803
2.409999999999971,4.09,4.0718911752011
2.4149999999999707,3.91,4.071884511881084
2.4199999999999706,3.91,4.071884511945712
2.4249999999999705,4.09,4.071891175715178
2.4299999999999704,4.09,4.072227052990099
2.4349999999999703,4.09,4.073304024364346
2.43999999999997,4.09,4.075473494456857
2.44499999999997,4.09,4.078788716950499
2.44999999999997,4.09,4.082750114600713
2.45499999999997,4.09,4.086392602237716
2.4599999999999698,4.09,4.088832596184497
2.4649999999999697,4.09,4.089834543878686
2.4699999999999696,4.09,4.089999999999999
2.4749999999999694,4.09,4.089999999999996
2.4799999999999693,4.09,4.090000000000007
2.4849999999999692,4.09,4.08999999999999
2.489999999999969,4.09,4.090000000000032
2.494999999999969,4.09,4.090000000000006
2.499999999999969,4.09,4.089999999999992
2.504999999999969,4.09,4.09000000000001
2.5099999999999687,4.09,4.089999999999987
2.5149999999999686,3.54,4.089999999999997
2.5199999999999685,3.54,4.0900000000000025
2.5249999999999684,4.09,4.090000000000009
2.5299999999999683,4.09,4.090000000000004
2.534999999999968,4.09,4.090000000000007
2.539999999999968,4.09,4.0899999999999705
2.544999999999968,4.09,4.089999999999998
2.549999999999968,4.09,4.09
2.5549999999999677,4.09,4.089999999999996
2.5599999999999676,4.09,4.089999999999999
2.5649999999999675,4.09,4.089999999999999
2.5699999999999674,4.09,4.089999999999999
2.5749999999999673,4.09,4.089999999999999
2.579999999999967,4.09,4.09
2.584999999999967,4.09,4.09
2.589999999999967,4.09,4.089999999999999
2.594999999999967,4.09,4.089999999999999
2.599999999999967,4.09,4.089999999999998
2.6049999999999667,4.09,4.09
2.6099999999999666,4.09,4.09
2.6149999999999665,4.09,4.089999999999999
2.6199999999999664,4.09,4.09
2.6249999999999662,4.09,4.089999999999999
2.629999999999966,4.09,4.089999999999999
2.634999999999966,4.09,4.09
2.639999999999966,4.09,4.089999999999999
2.644999999999966,4.09,4.090000000000001
2.6499999999999657,4.09,4.09
2.6549999999999656,4.09,4.089999999999999
2.6599999999999655,4.09,4.09
2.6649999999999654,4.09,4.090000000000001
2.6699999999999653,4.09,4.089999999999999
2.674999999999965,4.09,4.090000000000001
2.679999999999965,4.09,4.089999999999988
2.684999999999965,4.09,4.090000000000022
2.689999999999965,4.09,4.090000000000001
2.6949999999999648,4.09,4.0899999999999865
2.6999999999999647,4.09,4.089999999999991
2.7049999999999645,4.09,4.0900000000000105
2.7099999999999644,4.09,4.089999999999988
2.7149999999999643,3.52,4.09
2.7199999999999642,3.52,4.090000000000004
2.724999999999964,4.09,4.0900000000000025
2.729999999999964,4.09,4.089999999999993
2.734999999999964,4.09,4.090000000000003
2.739999999999964,4.09,4.089999999999994
2.7449999999999637,4.09,4.089999999999989
2.7499999999999636,4.09,4.090000000000004
2.7549999999999635,4.09,4.089999999999996
2.7599999999999634,4.09,4.089999999999991
2.7649999999999633,4.09,4.090000000000044
2.769999999999963,4.09,4.089999999999982
2.774999999999963,4.09,4.0899999999999945
2.779999999999963,4.09,4.090000000000013
2.784999999999963,3.27,4.090000000000001
2.7899999999999627,3.27,4.089999999999994
2.7949999999999626,4.09,4.089999999999988
2.7999999999999625,4.09,4.090000000000027
2.8049999999999624,4.09,4.089999999999987
2.8099999999999623,4.09,4.089880037983622
2.814999999999962,4.09,4.089107214030267
2.819999999999962,4.09,4.086860522089076
2.824999999999962,4.09,4.08290453715442
2.829999999999962,4.09,4.078307240401584
2.8349999999999618,4.09,4.0745144381425
2.8399999999999617,4.09,4.071980160690059
2.8449999999999616,4.09,4.070189938728244
2.8499999999999615,4.09,4.068832947100032
2.8549999999999613,3.91,4.068086066380598
2.8599999999999612,3.91,4.068017611110051
2.864999999999961,4.09,4.068456263355575
2.869999999999961,4.09,4.069245411466107
2.874999999999961,4.09,4.070479713227923
2.879999999999961,4.09,4.072541787901916
2.8849999999999607,3.37,4.075777413377184
2.8899999999999606,3.37,4.080048967801698
2.8949999999999605,4.09,4.084543396344666
2.8999999999999604,4.09,4.088044772503842
2.9049999999999603,4.09,4.0896972086435275
2.90999999999996,4.09,4.090000000000012
2.91499999999996,4.09,4.09000000000002
2.91999999999996,4.09,4.089999999999997
2.92499999999996,4.09,4.089999999999996
2.9299999999999597,4.09,4.0900000000000265
2.9349999999999596,4.09,4.0899999999999554
2.9399999999999595,4.09,4.0896433492250095
2.9449999999999594,4.09,4.086428096314927
2.9499999999999593,4.09,4.0751923909013765
2.954999999999959,2.58,4.0527954636446095
2.959999999999959,2.58,4.018204105691755
2.964999999999959,4.09,3.9717342902583153
2.969999999999959,4.09,3.9272213260344584
2.974999999999959,3.49,3.9157040225514863
2.9799999999999587,3.49,3.9327303725825216
2.9849999999999586,3.56,3.943198428574895
2.9899999999999585,3.56,3.938400724037135
2.9949999999999584,4.09,3.9234063537538595
2.9999999999999583,4.09,3.910997203982523
3.004999999999958,3.62,3.901707482189145
3.009999999999958,3.62,3.9043758813709126
3.014999999999958,4.09,3.9332052043926446
3.019999999999958,4.09,3.975282814621545
3.0249999999999577,2.83,4.015928479286392
3.0299999999999576,2.83,4.047266237944222
3.0349999999999575,4.09,4.067143709473662
3.0399999999999574,4.09,4.079058346276869
3.0449999999999573,4.09,4.08599770892613
3.049999999999957,4.09,4.088635186182394
3.054999999999957,2.67,4.086375916539714
3.059999999999957,2.67,4.07993977609062
3.064999999999957,4.09,4.072137105765003
3.0699999999999568,4.09,4.065480051447343
3.0749999999999567,3.39,4.060954307622319
3.0799999999999566,3.39,4.057818112356207
3.0849999999999564,4.09,4.0548031354994105
3.0899999999999563,4.09,4.051943414105623
3.0949999999999562,3.9,4.0501548875867925
3.099999999999956,3.9,4.049946110126387
3.104999999999956,4.09,4.051432300475718
3.109999999999956,4.09,4.054860664854868
3.114999999999956,4.09,4.056056382030447
3.1199999999999557,4.09,4.048723223546816
3.1249999999999556,2.5,4.035458093698164
3.1299999999999555,2.5,4.024994780935934
3.1349999999999554,4.09,4.0215085518761065
3.1399999999999553,4.09,4.022571769114529
3.144999999999955,3.61,4.0232576645526965
3.149999999999955,3.61,4.020331288211572
3.154999999999955,3.77,4.014400342280436
3.159999999999955,3.77,4.009001849317735
3.1649999999999547,4.01,4.008875476486419
3.1699999999999546,4.01,4.014927887589945
3.1749999999999545,4.09,4.024119157652397
3.1799999999999544,4.09,4.035833412841259
3.1849999999999543,4.09,4.049836585883755
3.189999999999954,4.09,4.063643444252315
3.194999999999954,2.71,4.074770357087241
3.199999999999954,2.71,4.08192592463749
3.204999999999954,4.09,4.083444644865371
3.209999999999954,4.09,4.078086516850153
3.2149999999999537,4.09,4.066036554752791
3.2199999999999536,4.09,4.049889044497831
3.2249999999999535,2.95,4.032801404543297
3.2299999999999534,2.95,4.015426192846109
3.2349999999999532,4.09,3.9977071502398367
3.239999999999953,4.09,3.981126311580928
3.244999999999953,3.77,3.9691099144170887
3.249999999999953,3.77,3.9630148443397313
3.254999999999953,3.86,3.961019022154926
3.2599999999999527,3.86,3.96431442161483
3.2649999999999526,4.09,3.9739813041682996
3.2699999999999525,4.09,3.9860267520378123
3.2749999999999524,3.33,3.99725594065805
3.2799999999999523,3.33,4.009347433201278
3.284999999999952,4.09,4.026040943950149
3.289999999999952,4.09,4.04624147549707
3.294999999999952,3.25,4.06560620914429
3.299999999999952,3.25,4.080857676428035
3.3049999999999518,4.09,4.088624780930099
3.3099999999999516,4.09,4.089999999999979
3.3149999999999515,4.09,4.089999999999992
3.3199999999999514,4.09,4.089999999999996
3.3249999999999513,2.52,4.089999999999997
3.329999999999951,2.52,4.089999999999999
3.334999999999951,4.09,4.09
3.339999999999951,4.09,4.089999999999997
3.344999999999951,4.09,4.090000000000006
3.349999999999951,4.09,4.090000000000021
3.3549999999999507,3.34,4.090000000000049
3.3599999999999506,3.34,4.090000000000007
3.3649999999999505,4.09,4.089999999999985
3.3699999999999504,4.09,4.090000000000047
3.3749999999999503,4.09,4.090000000000006
3.37999999999995,4.09,4.090000000000037
3.38499999999995,4.09,4.090000000000001
3.38999999999995,4.09,4.090000000000002
3.39499999999995,4.09,4.089999999999996
3.3999999999999497,4.09,4.09000000000001
3.4049999999999496,4.09,4.090000000000004
3.4099999999999495,4.09,4.090000000000016
3.4149999999999494,4.09,4.089999999999981
3.4199999999999493,4.09,4.090000000000029
3.424999999999949,3.4,4.089999999999992
3.429999999999949,3.4,4.09000000000002
3.434999999999949,4.09,4.09
3.439999999999949,4.09,4.090000000000013
3.4449999999999488,4.09,4.090000000000003
3.4499999999999487,4.09,4.090000000000001
3.4549999999999486,3.05,4.089999999999997
3.4599999999999485,3.05,4.089999999999999
3.4649999999999483,4.09,4.09
3.4699999999999482,4.09,4.090000000000004
3.474999999999948,3.73,4.090000000000008
3.479999999999948,3.73,4.090000000000007
3.484999999999948,4.09,4.089999999999985
3.489999999999948,4.09,4.089999999999973
3.4949999999999477,4.09,4.08999999999998
3.4999999999999476,4.09,4.089999999999987
3.5049999999999475,4.09,4.090000000000006
3.5099999999999474,4.09,4.0899999999999626
3.5149999999999473,4.09,4.089999999999996
3.519999999999947,4.09,4.089999999999926
3.524999999999947,2.67,4.089999999999985
3.529999999999947,2.67,4.087851756548244
3.534999999999947,4.09,4.058256318284017
3.5399999999999467,4.09,3.955234893596296
3.5449999999999466,4.09,3.8208174718451127
3.5499999999999465,4.09,3.694711296701978
3.5549999999999464,2.36,3.579170776144303
3.5599999999999463,2.36,3.4668252719084673
3.564999999999946,4.09,3.3664701940282535
3.569999999999946,4.09,3.2744410804722235
3.574999999999946,2.94,3.170525418198185
3.579999999999946,2.94,3.0368898654630065
3.584999999999946,2.61,2.8914817868517493
3.5899999999999457,2.61,2.825072418316167
3.5949999999999456,3.73,2.8139550205921653
3.5999999999999455,3.73,2.81818790033747
3.6049999999999454,2.68,2.8275490826698926
3.6099999999999453,2.68,2.8372132751711736
3.614999999999945,2.6,2.846618451420241
3.619999999999945,2.6,2.8605064401162617
3.624999999999945,3.04,2.885191043097066
3.629999999999945,3.04,2.9187920262592604
3.6349999999999447,3.47,2.951414756499359
3.6399999999999446,3.47,2.98142834654173
3.6449999999999445,2.97,3.0103967389295634
3.6499999999999444,2.97,3.0360163962813704
3.6549999999999443,1.58,3.0546384567959515
3.659999999999944,1.58,3.067342586072779
3.664999999999944,3.85,3.0780149428891734
3.669999999999944,3.85,3.089350010342335
3.674999999999944,3.16,3.1022558667165794
3.6799999999999438,3.16,3.1181090107461134
3.6849999999999437,2.02,3.1366689171086524
3.6899999999999435,2.02,3.1546406575971786
3.6949999999999434,2.94,3.1679647584249815
3.6999999999999433,2.94,3.177418534550314
3.7049999999999432,3.54,3.186083533124239
3.709999999999943,3.54,3.1947957156505264
3.714999999999943,3.23,3.2041598983100483
3.719999999999943,3.23,3.2161810767717536
3.724999999999943,1.79,3.23280072550631
3.7299999999999427,1.79,3.24825024082022
3.7349999999999426,4.09,3.2580665915083267
3.7399999999999425,4.09,3.2634551571141857
3.7449999999999424,3.27,3.2684650127243775
3.7499999999999423,3.27,3.259308466695636
3.754999999999942,1.77,3.198878378952028
3.759999999999942,1.77,3.163766192596776
3.764999999999942,4.09,3.1585350526120717
3.769999999999942,4.09,3.1425357047972073
3.7749999999999417,2.33,3.1192229603313653
3.7799999999999416,2.33,3.0903875057952153
3.7849999999999415,2.41,3.0473147371655784
3.7899999999999414,2.41,2.970929596801759
3.7949999999999413,2.95,2.9325436548269774
3.799999999999941,2.95,2.994613162271101
3.804999999999941,3.11,3.0426550524192217
3.809999999999941,3.11,3.071185628936483
3.814999999999941,3.97,3.0977150266281854
3.8199999999999408,3.97,3.124384043662814
3.8249999999999407,2.05,3.1510789963990824
3.8299999999999406,2.05,3.177480276950492
3.8349999999999405,3.93,3.203193659387525
3.8399999999999403,3.93,3.2257870865533578
3.8449999999999402,3.26,3.2380037724381294
3.84999999999994,3.26,3.2400031315762328
3.85499999999994,1.6,3.2337013323667003
3.85999999999994,1.6,3.2190387634844124
3.86499999999994,3.8,3.202910863931693
3.8699999999999397,3.8,3.187963767502969
3.8749999999999396,2.5,3.177744626734633
3.8799999999999395,2.5,3.170847953466599
3.8849999999999394,3.13,3.1627365903796187
3.8899999999999393,3.13,3.1503113849012063
3.894999999999939,2.58,3.1386728521041687
3.899999999999939,2.58,3.1388094838839753
3.904999999999939,3.7,3.142146339549522
3.909999999999939,3.7,3.1454949830023815
3.9149999999999388,3.15,3.1485513478099163
3.9199999999999386,3.15,3.148111741570918
3.9249999999999385,1.64,3.1314455779713537
3.9299999999999384,1.64,3.115091684092847
3.9349999999999383,3.94,3.106488999846617
3.939999999999938,3.94,3.096135267049168
3.944999999999938,2.1,3.0850070417103623
3.949999999999938,2.1,3.07377928697196
3.954999999999938,2.49,3.062361908053668
3.959999999999938,2.49,3.0456877508291758
3.9649999999999377,3.04,2.954892681222405
3.9699999999999376,3.04,2.9838840693261495
3.9749999999999375,3.01,3.1070576252728324
3.9799999999999374,3.01,3.234347161743488
3.9849999999999373,3.82,3.3585715699883254
3.989999999999937,3.82,3.480594625249217
3.994999999999937,2.39,3.6010299485141544
3.999999999999937,2.39,3.720699902764589
4.004999999999937,4.09,3.8407293153374393
4.009999999999937,4.09,3.962153772352756
4.014999999999937,4.09,4.080930971147196
4.0199999999999365,4.09,4.146094331069501
4.024999999999936,2.48,4.1009771507571795
4.029999999999936,2.48,4.08999999999898
4.034999999999936,4.09,4.090000000000354
4.039999999999936,4.09,3.97438176128597
4.044999999999936,2.87,3.9188699983206456
4.049999999999936,2.87,3.889731730702116
4.054999999999936,3.16,3.8642651104879526
4.059999999999936,3.16,3.839718853778526
4.0649999999999356,4.09,3.811519621049152
4.0699999999999354,4.09,3.7852321703293423
4.074999999999935,4.01,3.7961762917424804
4.079999999999935,4.01,3.757595754968701
4.084999999999935,3.66,3.6916006468603118
4.089999999999935,3.66,3.6214636550454604
4.094999999999935,2.31,3.551106042505077
4.099999999999935,2.31,3.4826327143828375
4.104999999999935,4.09,3.425006090987815
4.109999999999935,4.09,3.380933273426792
4.1149999999999345,3.22,3.341806878714956
4.119999999999934,3.22,3.3034914326037015
4.124999999999934,2.25,3.262532601362339
4.129999999999934,2.25,3.2237740390596126
4.134999999999934,4.09,3.207680640513289
4.139999999999934,4.09,3.2228619064304516
4.144999999999934,3.11,3.2450922799190085
4.149999999999934,3.11,3.263384984897008
4.154999999999934,3.56,3.278928955216733
4.1599999999999335,3.56,3.298748775168877
4.164999999999933,2.99,3.335472338975121
4.169999999999933,2.99,3.3844421755575476
4.174999999999933,3.46,3.4202864896027636
4.179999999999933,3.46,3.438305505023672
4.184999999999933,3.83,3.4502764767022396
4.189999999999933,3.83,3.4580289420464934
4.194999999999933,2.64,3.46028242718475
4.199999999999933,2.64,3.46005643693022
4.204999999999933,4.09,3.4563848110879665
4.2099999999999325,4.09,3.4381928751614406
4.214999999999932,3.46,3.4036782132923005
4.219999999999932,3.46,3.3544784624970654
4.224999999999932,1.52,3.2577860236186122
4.229999999999932,1.52,3.1345530100300656
4.234999999999932,4.09,3.0714153572476732
4.239999999999932,4.09,3.0222782036233315
4.244999999999932,2.58,2.9850609847784733
4.249999999999932,2.58,2.9487391382551467
4.2549999999999315,1.63,2.8777561212986336
4.259999999999931,1.63,2.7319703302937963
4.264999999999931,3.73,2.5823070352869326
4.269999999999931,3.73,2.5914906950583485
4.274999999999931,2.5,2.6500022941599046
4.279999999999931,2.5,2.717354218931124
4.284999999999931,2.95,2.805831661186328
4.289999999999931,2.95,2.9385112675758576
4.294999999999931,2.45,3.124364143244207
4.2999999999999305,2.45,3.1254279320628493
4.30499999999993,3.67,2.854876495480228
4.30999999999993,3.67,2.7571592675411685
4.31499999999993,3.4,2.730522088469082
4.31999999999993,3.4,2.718857414321378
4.32499999999993,0.97,2.7018001563431118
4.32999999999993,0.97,2.6709565114805383
4.33499999999993,4.09,2.562176168129512
4.33999999999993,4.09,2.5076305395446945
4.34499999999993,2.55,2.534116576931475
4.3499999999999295,2.55,2.560565142976181
4.354999999999929,1.55,2.5866975634450493
4.359999999999929,1.55,2.613072884816276
4.364999999999929,4.09,2.66063596455244
4.369999999999929,4.09,2.7409041704813926
4.374999999999929,2.7,2.828831138587142
4.379999999999929,2.7,2.913502692460451
4.384999999999929,2.63,2.99669830782486
4.389999999999929,2.63,3.088188169583092
4.3949999999999285,4.09,3.196952560724851
4.399999999999928,4.09,3.310694468500462
4.404999999999928,3.55,3.417992143498944
4.409999999999928,3.55,3.5242159541323876
4.414999999999928,4.09,3.6331271414485458
4.419999999999928,4.09,3.7362802249587554
4.424999999999928,2.95,3.818947957023302
4.429999999999928,2.95,3.8820740373468223
4.434999999999928,4.09,3.9345710269549494
4.439999999999928,4.09,3.9831187089777385
4.4449999999999275,4.09,4.03047573809817
4.449999999999927,4.09,4.069490203628397
4.454999999999927,2.31,4.087454316246179
4.459999999999927,2.31,4.089790652304125
4.464999999999927,4.09,4.088317732650287
4.469999999999927,4.09,4.085114707842847
4.474999999999927,4.09,4.081360582325384
4.479999999999927,4.09,4.078102308892899
4.484999999999927,3.43,4.075429127649936
4.4899999999999265,3.43,4.073210093821444
4.494999999999926,4.09,4.071624196288065
4.499999999999926,4.09,4.070762099166895
4.504999999999926,3.99,4.070246215300142
4.509999999999926,3.99,4.069738597016289
4.514999999999926,4.09,4.069823078508178
4.519999999999926,4.09,4.071465954117082
4.524999999999926,4.09,4.074656583835517
4.529999999999926,4.09,4.078294802304531
4.5349999999999255,4.09,4.081526347942486
4.539999999999925,4.09,4.084403659497739
4.544999999999925,4.09,4.087086738107074
4.549999999999925,4.09,4.0890447956205085
4.554999999999925,3.44,4.0898657596868615
4.559999999999925,3.44,4.090000000000023
4.564999999999925,4.09,4.08999999999998
4.569999999999925,4.09,4.089999999999997
4.574999999999925,4.09,4.090000000000004
4.579999999999925,4.09,4.089999999999986
4.5849999999999245,2.98,4.0899999999999554
4.589999999999924,2.98,4.089999999999965
4.594999999999924,4.09,4.089999999999967
4.599999999999924,4.09,4.089999999999996
4.604999999999924,4.09,4.090000000000063
4.609999999999924,4.09,4.090000000000065
4.614999999999924,4.09,4.090000000000003
4.619999999999924,4.09,4.0899999999999945
4.624999999999924,4.09,4.089999999999983
4.6299999999999235,4.09,4.089999999999976
4.634999999999923,4.09,4.090000000000016
4.639999999999923,4.09,4.08973980144561
4.644999999999923,4.09,4.088353793668324
4.649999999999923,4.09,4.08553349078602
4.654999999999923,3.22,4.082051986542801
4.659999999999923,3.22,4.078769372082972
4.664999999999923,4.09,4.076177823795764
4.669999999999923,4.09,4.0743629774963255
4.6749999999999226,4.09,4.073139997723078
4.6799999999999224,4.09,4.072314232722094
4.684999999999922,3.98,4.071884575575515
4.689999999999922,3.98,4.071985870918805
4.694999999999922,4.09,4.072705557670775
4.699999999999922,4.09,4.073940496345106
4.704999999999922,4.09,4.075526913292481
4.709999999999922,4.09,4.077656008532121
4.714999999999922,4.09,4.080672851703111
4.719999999999922,4.09,4.084262935188266
4.7249999999999215,4.09,4.087393278297094
4.729999999999921,4.09,4.089235726207256
4.734999999999921,4.09,4.089895254910195
4.739999999999921,4.09,4.089999999999956
4.744999999999921,4.09,4.090000000000005
4.749999999999921,4.09,4.0900000000000025
4.754999999999921,2.96,4.089999999999999
4.759999999999921,2.96,4.089999999999995
4.764999999999921,4.09,4.090000000000002
4.7699999999999205,4.09,4.089999999999975
4.77499999999992,4.09,4.089999999999989
4.77999999999992,4.09,4.090000000000023
4.78499999999992,4.09,4.089999999999998
4.78999999999992,4.09,4.089999999999999
4.79499999999992,4.09,4.090000000000005
4.79999999999992,4.09,4.089999999999998
4.80499999999992,4.09,4.090000000000008
4.80999999999992,4.09,4.089965348817728
4.81499999999992,4.09,4.0897673088886926
4.8199999999999195,4.09,4.0893026271948525
4.824999999999919,2.9,4.08863467781685
4.829999999999919,2.9,4.0879708470150975
4.834999999999919,4.09,4.087514409782588
4.839999999999919,4.09,4.08730197360747
4.844999999999919,4.09,4.087234298720651
4.849999999999919,4.09,4.087207505795807
4.854999999999919,3.78,4.087181465467556
4.859999999999919,3.78,4.087173871187343
4.8649999999999185,4.09,4.087224680028499
4.869999999999918,4.09,4.0873434096610275
4.874999999999918,4.09,4.0875153092666245
4.879999999999918,4.09,4.087692433584047
4.884999999999918,4.09,4.087460674199624
4.889999999999918,4.09,4.085954314680265
4.894999999999918,4.09,4.082734317946297
4.899999999999918,4.09,4.078665355885267
4.904999999999918,4.09,4.07512001491048
4.9099999999999175,4.09,4.072638407452115
4.914999999999917,4.09,4.070845506088355
4.919999999999917,4.09,4.069483155884373
4.924999999999917,3.93,4.068721776428413
4.929999999999917,3.93,4.068638102296032
4.934999999999917,4.09,4.069086129575512
4.939999999999917,4.09,4.069916455619504
4.944999999999917,4.09,4.071196239033859
4.949999999999917,4.09,4.073252845069903
4.954999999999917,2.98,4.076381552121431
4.9599999999999165,2.98,4.080452802790954
4.964999999999916,4.09,4.084736519682851
4.969999999999916,4.09,4.08810224013672
4.974999999999916,4.09,4.089704432705581
4.979999999999916,4.09,4.090000000000029
4.984999999999916,4.09,4.09000000000002
4.989999999999916,4.09,4.089999999999997
4.994999999999916,4.09,4.09
4.999999999999916,4.09,4.090000000000019
5.0049999999999155,4.09,4.090000000000047
5.009999999999915,4.09,4.090000000000012
5.014999999999915,4.09,4.090000000000006
5.019999999999915,4.09,4.090000000000008
5.024999999999915,3.43,4.089999999999985
5.029999999999915,3.43,4.090000000000024
5.034999999999915,4.09,4.090000000000001
5.039999999999915,4.09,4.089999999999996
5.044999999999915,4.09,4.089999999999997
5.049999999999915,4.09,4.089999999999961
5.0549999999999145,3.23,4.090000000000001
5.059999999999914,3.23,4.089999999999984
5.064999999999914,4.09,4.089999999999965
5.069999999999914,4.09,4.0900000000000025
5.074999999999914,4.09,4.090000000000004
5.079999999999914,4.09,4.090000000000033
5.084999999999914,4.09,4.090000000000037
5.089999999999914,4.09,4.090000000000008
5.094999999999914,4.09,4.08999999999999
5.0999999999999135,4.09,4.089999999999959
5.104999999999913,4.09,4.090000000000004
5.109999999999913,4.09,4.090000000000001
5.114999999999913,4.09,4.090000000000002
5.119999999999913,4.09,4.090000000000017
5.124999999999913,3.54,4.089999999999964
5.129999999999913,3.54,4.09
5.134999999999913,4.09,4.089999999999985
5.139999999999913,4.09,4.089917836621684
5.1449999999999125,4.09,4.08953138230405
5.149999999999912,4.09,4.08882779958033
5.154999999999912,2.89,4.087953860467208
5.159999999999912,2.89,4.0869624064637105
5.164999999999912,4.09,4.085971171545792
5.169999999999912,4.09,4.085181938157269
5.174999999999912,4.09,4.0846708797543085
5.179999999999912,4.09,4.08434629948603
5.184999999999912,4.06,4.084156091128101
5.189999999999912,4.06,4.08415962713218
5.1949999999999115,4.09,4.084425351552875
5.199999999999911,4.09,4.084917305141544
5.204999999999911,4.09,4.085519851714942
5.209999999999911,4.09,4.086206550672162
5.214999999999911,4.09,4.087077711550756
5.219999999999911,4.09,4.088100689385338
5.224999999999911,3.49,4.0890284408914
5.229999999999911,3.49,4.089654710728769
5.234999999999911,4.09,4.089941993433068
5.2399999999999105,4.09,4.089999999999999
5.24499999999991,4.09,4.089999999999999
5.24999999999991,4.09,4.090000000000007
5.25499999999991,2.84,4.089999999999998
5.25999999999991,2.84,4.089945380229323
5.26499999999991,4.09,4.089541369639529
5.26999999999991,4.09,4.088391775397532
5.27499999999991,4.09,4.086646435870091
5.27999999999991,4.09,4.0848783799032
5.2849999999999095,3.09,4.0835222946961425
5.289999999999909,3.09,4.082141371585935
5.294999999999909,4.09,4.078798985165592
5.299999999999909,4.09,4.072587188539222
5.304999999999909,3.75,4.065264843767666
5.309999999999909,3.75,4.058643469984696
5.314999999999909,4.09,4.052477183609871
5.319999999999909,4.09,4.046496899832978
5.324999999999909,4.09,4.04217361367874
5.329999999999909,4.09,4.041154168759529
5.3349999999999085,3.81,4.042706730482548
5.339999999999908,3.81,4.045001784205293
5.344999999999908,4.09,4.047769163741481
5.349999999999908,4.09,4.051187003319011
5.354999999999908,3.48,4.054921423106999
5.359999999999908,3.48,4.059086094130875
5.364999999999908,4.09,4.064140825940716
5.369999999999908,4.09,4.0703463390386805
5.374999999999908,4.09,4.076961708409098
5.3799999999999075,4.09,4.08144502395904
5.384999999999907,2.49,4.082138644353563
5.389999999999907,2.49,4.080885196810477
5.394999999999907,4.09,4.079996492171799
5.399999999999907,4.09,4.079819553851878
5.404999999999907,4.05,4.079887624109384
5.409999999999907,4.05,4.079832958549093
5.414999999999907,3.3,4.079824994459104
5.419999999999907,3.3,4.080337413850973
5.424999999999907,4.09,4.0815217991331645
5.4299999999999065,4.09,4.083053863087305
5.434999999999906,4.09,4.084606491693959
5.439999999999906,4.09,4.086267001870296
5.444999999999906,4.09,4.088061375647749
5.449999999999906,4.09,4.089408915568527
5.454999999999906,2.8,4.089927963860009
5.459999999999906,2.8,4.090000000000023
5.464999999999906,4.09,4.08999999999998
5.469999999999906,4.09,4.089999999999996
5.4749999999999055,4.09,4.090000000000012
5.479999999999905,4.09,4.089999999999996
5.484999999999905,3.26,4.0899999999999785
5.489999999999905,3.26,4.090000000000002
5.494999999999905,4.09,4.090000000000018
5.499999999999905,4.09,4.089999999999933
5.504999999999905,4.09,4.090000000000005
5.509999999999905,4.09,4.090000000000013
5.514999999999905,4.09,4.0900000000000185
5.5199999999999045,4.09,4.090000000000005
5.524999999999904,4.09,4.089999999999988
5.529999999999904,4.09,4.090000000000045
5.534999999999904,4.09,4.089999999999978
5.539999999999904,4.09,4.090000000000014
5.544999999999904,4.09,4.090000000000063
5.549999999999904,4.09,4.089999999999981
5.554999999999904,3.1,4.090000000000024
5.559999999999904,3.1,4.090000000000002
5.564999999999904,4.09,4.089999999999997
5.5699999999999035,4.09,4.0900000000000025
5.574999999999903,4.09,4.089999999999997
5.579999999999903,4.09,4.090000000000007
5.584999999999903,3.4,4.090000000000004
5.589999999999903,3.4,4.089999999999998
5.594999999999903,4.09,4.09
5.599999999999903,4.09,4.089999999999993
5.604999999999903,4.09,4.089999999999989
5.609999999999903,4.09,4.089999999999999
5.6149999999999025,4.09,4.089999999999999
5.619999999999902,4.09,4.09
5.624999999999902,3.72,4.089999999999989
5.629999999999902,3.72,4.089999999999973
5.634999999999902,4.09,4.089999999999999
5.639999999999902,4.09,4.089999999999998
5.644999999999902,4.09,4.089999999999981
5.649999999999902,4.09,4.08999999999998
5.654999999999902,2.87,4.08999999999995
5.6599999999999016,2.87,4.090000000000018
5.6649999999999014,4.09,4.089999999999905
5.669999999999901,4.09,4.090000000000024
5.674999999999901,4.09,4.089999999999921
5.679999999999901,4.09,4.090000000000013
5.684999999999901,4.09,4.090000000000008
5.689999999999901,4.09,4.089999999999997
5.694999999999901,4.09,4.089999999999973
5.699999999999901,4.09,4.089999999999996
5.704999999999901,4.09,4.090000000000001
5.7099999999999005,4.09,4.09
5.7149999999999,4.09,4.09
5.7199999999999,4.09,4.089999999999999
5.7249999999999,4.09,4.089999999999999
5.7299999999999,4.09,4.089999999999999
5.7349999999999,4.09,4.09
5.7399999999999,4.09,4.089771980190741
5.7449999999999,4.09,4.0884012195374115
5.7499999999999,4.09,4.085161384994891
5.7549999999998995,4.09,4.080475484155991
5.759999999999899,4.09,4.0751253000538545
5.764999999999899,4.09,4.06917175517535
5.769999999999899,4.09,4.062453021931341
5.774999999999899,4.09,4.055800275851899
5.779999999999899,4.09,4.050380286245427
5.784999999999899,3.93,4.046107115378386
5.789999999999899,3.93,4.042729183493488
5.794999999999899,4.09,4.041311832360156
5.799999999999899,4.09,4.04260158509406
5.8049999999998985,3.79,4.045645671894645
5.809999999999898,3.79,4.049181272674859
5.814999999999898,4.09,4.053473956911844
5.819999999999898,4.09,4.059307328781338
5.824999999999898,3.0,4.066184732887108
5.829999999999898,3.0,4.072243901976804
5.834999999999898,4.09,4.075024243888578
5.839999999999898,4.09,4.074788390391237
5.844999999999898,4.09,4.073526688484639
5.8499999999998975,4.09,4.0715084913734545
5.854999999999897,3.57,4.068641160884542
5.859999999999897,3.57,4.065531313237258
5.864999999999897,4.09,4.063114360330993
5.869999999999897,4.09,4.061756430985894
5.874999999999897,3.95,4.060941250411354
5.879999999999897,3.95,4.060240502568598
5.884999999999897,4.09,4.060535037917727
5.889999999999897,4.09,4.063148097761645
5.8949999999998965,4.09,4.068023056922366
5.899999999999896,4.09,4.073606071176667
5.904999999999896,4.09,4.078600163848718
5.909999999999896,4.09,4.082856664012347
5.914999999999896,4.09,4.086494627696776
5.919999999999896,4.09,4.088933681085682
5.924999999999896,3.68,4.089862083292264
5.929999999999896,3.68,4.089289439779193
5.934999999999896,4.09,4.085475677118544
5.939999999999896,4.09,4.078218461817758
5.9449999999998955,4.09,4.0704649707971745
5.949999999999895,4.09,4.063998158245605
5.954999999999895,3.49,4.057968932578306
5.959999999999895,3.49,4.05140361379207
5.964999999999895,4.09,4.044758353962916
5.969999999999895,4.09,4.039079029446148
5.974999999999895,3.87,4.034535646558757
5.979999999999895,3.87,4.030538310670385
5.984999999999895,4.09,4.028138484665798
5.9899999999998945,4.09,4.029532202750121
5.994999999999894,3.97,4.035062911085441
5.999999999999894,3.97,4.042581243811998
6.004999999999894,4.09,4.050047238565985
6.009999999999894,4.09,4.057219633653603
6.014999999999894,4.09,4.064310320689053
6.019999999999894,4.09,4.070591156112051
6.024999999999894,3.32,4.074674647842375
6.029999999999894,3.32,4.076596368945607
6.034999999999894,4.09,4.077506513249578
6.0399999999998935,4.09,4.0775787212017365
6.044999999999893,4.09,4.076409573972183
6.049999999999893,4.09,4.0744026558958195
6.054999999999893,4.09,4.07238111693728
6.059999999999893,4.09,4.070745166706384
6.064999999999893,3.97,4.069886078785413
6.069999999999893,3.97,4.069910701197462
6.074999999999893,4.09,4.070524523714257
6.079999999999893,4.09,4.071468950198881
6.0849999999998925,4.09,4.072794602350754
6.089999999999892,4.09,4.074761783454541
6.094999999999892,3.43,4.077588949857189
6.099999999999892,3.43,4.081196587571403
6.104999999999892,4.09,4.085044833923549
6.109999999999892,4.09,4.088172225398077
6.114999999999892,4.09,4.089711582959952
6.119999999999892,4.09,4.090000000000033
6.124999999999892,4.09,4.0900000000000665
6.1299999999998915,4.09,4.089999999999979
6.134999999999891,4.09,4.090000000000002
6.139999999999891,4.09,4.090000000000003
6.144999999999891,4.09,4.089999999999983
6.149999999999891,4.09,4.089627429712828
6.154999999999891,4.09,4.087611282323792
6.159999999999891,4.09,4.083392780867722
6.164999999999891,3.67,4.078068829311275
6.169999999999891,3.67,4.073200818645093
6.174999999999891,4.09,4.06974765393416
6.1799999999998905,4.09,4.067719543402707
6.18499999999989,4.09,4.066551648059435
6.18999999999989,4.09,4.065728232053769
6.19499999999989,3.87,4.065170793106027
6.19999999999989,3.87,4.065164502067372
6.20499999999989,4.09,4.066000030727813
6.20999999999989,4.09,4.067599528349203
6.21499999999989,4.09,4.069732377815221
6.21999999999989,4.09,4.072705080432775
6.2249999999998895,4.09,4.0768720416752595
6.229999999999889,4.09,4.081663678499246
6.234999999999889,4.09,4.0859288734706425
6.239999999999889,4.09,4.088711888280585
6.244999999999889,4.09,4.089821083108824
6.249999999999889,4.09,4.090000000000001
6.254999999999889,4.09,4.089999999999999
6.259999999999889,4.09,4.09
6.264999999999889,4.09,4.089999999999999
6.2699999999998886,4.09,4.090000000000001
6.2749999999998884,4.09,4.089999999999999
6.279999999999888,4.09,4.09
6.284999999999888,4.09,4.09
6.289999999999888,4.09,4.09
6.294999999999888,4.09,4.089999999999999
6.299999999999888,4.09,4.09
6.304999999999888,4.09,4.089999999999999
6.309999999999888,4.09,4.09
6.314999999999888,4.09,4.09
6.3199999999998875,4.09,4.089999999999999
6.324999999999887,4.09,4.09
6.329999999999887,4.09,4.09
6.334999999999887,4.09,4.089999999999999
6.339999999999887,4.09,4.089999999999999
6.344999999999887,4.09,4.089999999999999
6.349999999999887,4.09,4.089999999999999
6.354999999999887,4.09,4.09
6.359999999999887,4.09,4.089999999999999
6.3649999999998865,4.09,4.09
6.369999999999886,4.09,4.089999999999999
6.374999999999886,4.09,4.089999999999999
6.379999999999886,4.09,4.089999999999998
6.384999999999886,4.09,4.09
6.389999999999886,4.09,4.089999999999999
6.394999999999886,4.09,4.089999999999999
6.399999999999886,4.09,4.09
6.404999999999886,4.09,4.089999999999999
6.409999999999886,4.09,4.09
6.4149999999998855,4.09,4.09
6.419999999999885,4.09,4.09
6.424999999999885,4.09,4.09
6.429999999999885,4.09,4.09
6.434999999999885,4.09,4.089999999999999
6.439999999999885,4.09,4.089999999999999
6.444999999999885,4.09,4.089999999999999
6.449999999999885,4.09,4.09
6.454999999999885,4.09,4.089999999999999
6.4599999999998845,4.09,4.09
6.464999999999884,4.09,4.089999999999999
6.469999999999884,4.09,4.089999999999999
6.474999999999884,4.09,4.089999999999999
6.479999999999884,4.09,4.09
6.484999999999884,4.09,4.089999999999999
6.489999999999884,4.09,4.09
6.494999999999884,4.09,4.09
6.499999999999884,4.09,4.09
6.5049999999998835,4.09,4.089999999999999
6.509999999999883,4.09,4.089999999999999
6.514999999999883,4.09,4.089999999999999
6.519999999999883,4.09,4.09
6.524999999999883,4.09,4.09
6.529999999999883,4.09,4.089999999999999
6.534999999999883,4.09,4.089999999999999
6.539999999999883,4.09,4.09
6.544999999999883,4.09,4.09
6.549999999999883,4.09,4.09
6.5549999999998825,4.09,4.09
6.559999999999882,4.09,4.09
6.564999999999882,4.09,4.09
6.569999999999882,4.09,4.09
6.574999999999882,4.09,4.09
6.579999999999882,4.09,4.089999999999999
6.584999999999882,4.09,4.09
6.589999999999882,4.09,4.09
6.594999999999882,4.09,4.09
6.5999999999998815,4.09,4.09
6.604999999999881,4.09,4.09
6.609999999999881,4.09,4.089999999999999
6.614999999999881,4.09,4.089999999999999
6.619999999999881,4.09,4.09
6.624999999999881,4.09,4.09
6.629999999999881,4.09,4.089999999999999
6.634999999999881,4.09,4.089999999999999
6.639999999999881,4.09,4.089999999999999
6.644999999999881,4.09,4.089999999999999
6.6499999999998805,4.09,4.09
6.65499999999988,4.09,4.09
6.65999999999988,4.09,4.09
6.66499999999988,4.09,4.09
6.66999999999988,4.09,4.09
6.67499999999988,4.09,4.089999999999999
6.67999999999988,4.09,4.089999999999999
6.68499999999988,4.09,4.089999999999999
6.68999999999988,4.09,4.09
6.6949999999998795,4.09,4.089999999999999
6.699999999999879,4.09,4.089999999999999
6.704999999999879,4.09,4.09
6.709999999999879,4.09,4.089999999999999
6.714999999999879,4.09,4.089999999999999
6.719999999999879,4.09,4.09
6.724999999999879,4.09,4.089999999999999
6.729999999999879,4.09,4.089999999999999
6.734999999999879,4.09,4.089999999999999
6.7399999999998785,4.09,4.09
6.744999999999878,4.09,4.09
6.749999999999878,4.09,4.089999999999999
6.754999999999878,4.09,4.09
6.759999999999878,4.09,4.09
6.764999999999878,4.09,4.089999999999999
6.769999999999878,4.09,4.09
6.774999999999878,4.09,4.09
6.779999999999878,4.09,4.09
6.784999999999878,4.09,4.089999999999999
6.7899999999998775,4.09,4.089999999999999
6.794999999999877,4.09,4.089999999999999
6.799999999999877,4.09,4.09
6.804999999999877,4.09,4.09
6.809999999999877,4.09,4.09
6.814999999999877,4.09,4.09
6.819999999999877,4.09,4.089999999999999
6.824999999999877,4.09,4.089999999999999
6.829999999999877,4.09,4.09
6.8349999999998765,4.09,4.09
6.839999999999876,4.09,4.089999999999998
6.844999999999876,4.09,4.089999999999999
6.849999999999876,4.09,4.089999999999999
6.854999999999876,4.09,4.09
6.859999999999876,4.09,4.09
6.864999999999876,4.09,4.09
6.869999999999876,4.09,4.089999999999999
6.874999999999876,4.09,4.089999999999999
6.8799999999998755,4.09,4.09
6.884999999999875,4.09,4.089999999999999
6.889999999999875,4.09,4.09
6.894999999999875,4.09,4.089999999999999
6.899999999999875,4.09,4.089999999999999
6.904999999999875,4.09,4.09
6.909999999999875,4.09,4.089999999999999
6.914999999999875,4.09,4.09
6.919999999999875,4.09,4.089999999999998
6.924999999999875,4.09,4.089999999999999
6.9299999999998745,4.09,4.089999999999999
6.934999999999874,4.09,4.090000000000002
6.939999999999874,4.09,4.089999999999982
6.944999999999874,4.09,4.09000000000004
6.949999999999874,4.09,4.090000000000047
6.954999999999874,4.09,4.089999999999931
6.959999999999874,4.09,4.089681214971819
6.964999999999874,4.09,4.087975488847608
6.969999999999874,4.09,4.084441752396062
6.9749999999998735,3.07,4.079588606580375
6.979999999999873,3.07,4.07387889391037
6.984999999999873,4.09,4.068319663620195
6.989999999999873,4.09,4.064336495492015
6.994999999999873,4.09,4.062502031628683
6.999999999999873,4.09,4.0620116802196184
7.004999999999873,3.96,4.061862892920546
7.009999999999873,3.96,4.062011770156689
7.014999999999873,3.32,4.062886188955655
7.019999999999873,3.32,4.063977010852512
7.0249999999998725,4.09,4.062755969463232
7.029999999999872,4.09,4.058168814912248
7.034999999999872,4.09,4.052218322554281
7.039999999999872,4.09,4.045871906727349
7.044999999999872,2.66,4.038971596437949
7.049999999999872,2.66,4.033102013757035
7.054999999999872,4.09,4.031107099788738
7.059999999999872,4.09,4.032650291886584
7.064999999999872,3.81,4.034835641763094
7.0699999999998715,3.81,4.034818161305681
7.074999999999871,3.47,4.033098062890055
7.079999999999871,3.47,4.033442693602808
7.084999999999871,4.09,4.038321105306982
7.089999999999871,4.09,4.046431016362255
7.094999999999871,4.09,4.055657877185134
7.099999999999871,4.09,4.066507774991662
7.104999999999871,4.09,4.078313599936547
7.109999999999871,4.09,4.0867040689198815
7.1149999999998705,3.63,4.089673064977732
7.11999999999987,3.63,4.089999999999955
7.12499999999987,4.09,4.090000000000019
7.12999999999987,4.09,4.08999999999978
7.13499999999987,4.09,4.08999999999994
7.13999999999987,4.09,4.090000000000311
7.14499999999987,2.05,4.089999999999988
7.14999999999987,2.05,4.075275664082234
7.15499999999987,4.09,4.004102962496244
7.15999999999987,4.09,3.9352328865776367
7.1649999999998695,3.44,3.8927547609052477
7.169999999999869,3.44,3.870258562036765
7.174999999999869,3.05,3.854691744941317
7.179999999999869,3.05,3.83544039117304
7.184999999999869,4.09,3.7929661495489144
7.189999999999869,4.09,3.7432409842306167
7.194999999999869,3.6,3.715884460249579
7.199999999999869,3.6,3.722145449114737
7.204999999999869,4.09,3.767520540036931
7.2099999999998685,4.09,3.8288626223751963
7.214999999999868,3.67,3.8907265146157446
7.219999999999868,3.67,3.9448850934741677
7.224999999999868,4.09,3.9886140607547995
7.229999999999868,4.09,4.02408333148377
7.234999999999868,4.09,4.052389467026221
7.239999999999868,4.09,4.071735462975646
7.244999999999868,3.19,4.081379485973885
7.249999999999868,3.19,4.08567736958422
7.2549999999998676,4.09,4.088188796572006
7.2599999999998674,4.09,4.08955740253799
7.264999999999867,4.09,4.089956845944513
7.269999999999867,4.09,4.090000000000052
7.274999999999867,4.09,4.089999999999955
7.279999999999867,4.09,4.089999999999992
7.284999999999867,4.09,4.089999999999968
7.289999999999867,4.09,4.090000000000071
7.294999999999867,4.09,4.090000000000078
7.299999999999867,4.09,4.090000000000174
7.3049999999998665,4.09,4.090000000000095
7.309999999999866,4.09,4.090000000000098
7.314999999999866,3.28,4.090000000000111
7.319999999999866,3.28,4.09000000000017
7.324999999999866,4.09,4.09000000000018
7.329999999999866,4.09,4.090000000000074
7.334999999999866,3.56,4.090000000000014
7.339999999999866,3.56,4.089999999999992
7.344999999999866,4.09,4.09000000000002
7.3499999999998655,4.09,4.09000000000004
7.354999999999865,3.44,4.089999999999945
7.359999999999865,3.44,4.089612482430476
7.364999999999865,4.09,4.08568822594499
7.369999999999865,4.09,4.0704059694113734
7.374999999999865,4.09,4.0384980911633725
7.379999999999865,4.09,3.993328121888808
7.384999999999865,2.29,3.938720940845799
7.389999999999865,2.29,3.874915987688421
7.394999999999865,4.09,3.8054303341460463
7.3999999999998645,4.09,3.736847352733893
7.404999999999864,3.55,3.695179124945079
7.409999999999864,3.55,3.721168431868183
7.414999999999864,3.4,3.764938367489174
7.419999999999864,3.4,3.7929647471652523
7.424999999999864,4.09,3.798652012262998
7.429999999999864,4.09,3.814950416621936
7.434999999999864,3.35,3.8437762248141456
7.439999999999864,3.35,3.8837759634533007
7.4449999999998635,4.09,3.942610886650196
7.449999999999863,4.09,4.019072432650467
7.454999999999863,2.8,4.079515366037044
7.459999999999863,2.8,4.089999999999606
7.464999999999863,4.09,4.0899999999997725
7.469999999999863,4.09,4.090147495360994
7.474999999999863,4.09,4.08949817320444
7.479999999999863,4.09,4.0850666359685
7.484999999999863,2.39,4.076677945523495
7.4899999999998625,2.39,4.0684182754563585
7.494999999999862,4.09,4.061409740395269
7.499999999999862,4.09,4.055113948014435
7.504999999999862,3.18,4.0503120004682165
7.509999999999862,3.18,4.0464919890128135
7.514999999999862,3.74,4.041978100194529
7.519999999999862,3.74,4.036489311030348
7.524999999999862,4.09,4.031593285521517
7.529999999999862,4.09,4.029292245511329
7.534999999999862,3.97,4.0298007488684195
7.5399999999998615,3.97,4.033895348057234
7.544999999999861,4.09,4.042425473576136
7.549999999999861,4.09,4.052594202245459
7.554999999999861,2.53,4.061535159409233
7.559999999999861,2.53,4.068661990540149
7.564999999999861,4.09,4.07461072571172
7.569999999999861,4.09,4.079784582574609
7.574999999999861,4.09,4.08302739179981
7.579999999999861,4.09,4.083270029672524
7.5849999999998605,2.49,4.081118864523585
7.58999999999986,2.49,4.077846091902711
7.59499999999986,4.09,4.074465525802665
7.59999999999986,4.09,4.07139242775187
7.60499999999986,2.98,4.069152341895592
7.60999999999986,2.98,4.067778480612432
7.61499999999986,4.02,4.066735776092053
7.61999999999986,4.02,4.06610952388015
7.62499999999986,4.09,4.066525470981998
7.62999999999986,4.09,4.067951434135168
7.6349999999998595,3.73,4.069774111274592
7.639999999999859,3.73,4.07209989707129
7.644999999999859,4.09,4.075575985714747
7.649999999999859,4.09,4.079766221054483
7.654999999999859,2.33,4.083676875926689
7.659999999999859,2.33,4.08678683191913
7.664999999999859,4.09,4.0885960021870424
7.669999999999859,4.09,4.089185200551489
7.674999999999859,4.09,4.088701094947716
7.6799999999998585,4.09,4.086258309985299
7.684999999999858,2.47,4.0805294592596875
7.689999999999858,2.47,4.070469442872042
7.694999999999858,4.09,4.055803468240035
7.699999999999858,4.09,4.038893548172164
7.704999999999858,3.11,4.024232088680396
7.709999999999858,3.11,4.013192201991214
7.714999999999858,4.04,4.003073416239438
7.719999999999858,4.04,3.9928078303203427
7.7249999999998575,3.77,3.9850271189167126
7.729999999999857,3.77,3.982491795527206
7.734999999999857,3.87,3.9840966026195432
7.739999999999857,3.87,3.988279470109145
7.744999999999857,4.09,3.9965770761133146
7.749999999999857,4.09,4.009059304317012
7.754999999999857,2.58,4.023866500591125
7.759999999999857,2.58,4.040420691113647
7.764999999999857,4.09,4.057969271145054
7.769999999999857,4.09,4.072320945144041
7.7749999999998565,4.09,4.075305227762955
7.779999999999856,4.09,4.062118064059829
7.784999999999856,2.27,4.038613419063586
7.789999999999856,2.27,4.01466873684358
7.794999999999856,4.09,3.994876085705706
7.799999999999856,4.09,3.9795565009956877
7.804999999999856,3.31,3.96775264538672
7.809999999999856,3.31,3.956031411987333
7.814999999999856,3.74,3.9409410547004495
7.8199999999998555,3.74,3.925627662711464
7.824999999999855,3.87,3.919259091273037
7.829999999999855,3.87,3.926302738945124
7.834999999999855,3.96,3.9416718377129993
7.839999999999855,3.96,3.962491599475519
7.844999999999855,4.09,3.9873288465117667
7.849999999999855,4.09,4.013152591785483
7.854999999999855,2.25,4.0376935845281245
7.859999999999855,2.25,4.059526845084385
7.8649999999998546,4.09,4.076187190591635
7.8699999999998544,4.09,4.083074837387543
7.874999999999854,4.09,4.0752534362621695
7.879999999999854,4.09,4.047026623799841
7.884999999999854,2.26,3.9897862058403284
7.889999999999854,2.26,3.899289249511711
7.894999999999854,4.09,3.787248691919712
7.899999999999854,4.09,3.675976972897997
7.904999999999854,3.36,3.5513504570723917
7.909999999999854,3.36,3.400031250818675
7.9149999999998535,2.86,3.24491702006706
7.919999999999853,2.86,3.44931461009495
7.924999999999853,4.09,3.640306361728991
7.929999999999853,4.09,3.6229518897180752
7.934999999999853,2.98,3.6838284609731984
7.939999999999853,2.98,3.753602531763947
7.944999999999853,4.09,3.839345408147886
7.949999999999853,4.09,3.954916658685663
7.954999999999853,3.28,4.06831529392788
7.9599999999998525,3.28,4.089999999998011
7.964999999999852,4.09,4.089999999999671
7.969999999999852,4.09,4.089999999999315
7.974999999999852,4.09,4.0900000000000105
7.979999999999852,4.09,4.090000000000078
7.984999999999852,2.1,4.09000000000021
7.989999999999852,2.1,4.076587381414778
7.994999999999852,4.09,4.0291800225065035
7.999999999999852,4.09,3.988613209858584
8.004999999999852,3.09,3.9632780367063876
8.009999999999852,3.09,3.9463027818848735
8.014999999999853,3.47,3.9306927990902962
8.019999999999854,3.47,3.9108683556201407
8.024999999999855,4.09,3.882981808176116
8.029999999999855,4.09,3.854271958122749
8.034999999999856,3.75,3.836072693382245
8.039999999999857,3.75,3.8316164343417283
8.044999999999858,4.09,3.8351132631913014
8.049999999999859,4.09,3.837715359848396
8.05499999999986,2.17,3.837548948789948
8.05999999999986,2.17,3.8362314636560004
8.064999999999861,4.09,3.8344911344513775
8.069999999999862,4.09,3.8325460286096567
8.074999999999863,3.71,3.8349695052845867
8.079999999999863,3.71,3.848554414047876
8.084999999999864,2.9,3.868898226149536
8.089999999999865,2.9,3.8923935912790193
8.094999999999866,4.09,3.913947058047359
8.099999999999866,4.09,3.929441121950702
8.104999999999867,3.06,3.9424595809594334
8.109999999999868,3.06,3.9598152634260124
8.114999999999869,4.09,3.991191374278456
8.11999999999987,4.09,4.040145817179468
8.12499999999987,3.2,4.081970234445974
8.129999999999871,3.2,4.089999999999526
8.134999999999872,4.09,4.09000000000037
8.139999999999873,4.09,4.090000000000079
8.144999999999873,4.09,4.090000000000039
8.149999999999874,4.09,4.090000000000019
8.154999999999875,2.25,4.08999999999998
8.159999999999876,2.25,4.090000000000015
8.164999999999877,4.09,4.089999999999853
8.169999999999877,4.09,4.087889329101615
8.174999999999878,4.09,4.070459767917575
8.179999999999879,4.09,4.0244840552776235
8.18499999999988,2.26,3.9632036263751442
8.18999999999988,2.26,3.9000395270014443
8.194999999999881,4.09,3.8378001986123365
8.199999999999882,4.09,3.776297500975321
8.204999999999883,3.17,3.7181634662722103
8.209999999999884,3.17,3.6740108485980154
8.214999999999884,3.52,3.644441927935005
8.219999999999885,3.52,3.6421380404460457
8.224999999999886,4.09,3.67355293980539
8.229999999999887,4.09,3.7070145403126418
8.234999999999888,3.19,3.7448284205856726
8.239999999999888,3.19,3.7870313102916358
8.244999999999889,4.09,3.8372938623039867
8.24999999999989,4.09,3.8922123344855404
8.25499999999989,2.93,3.952498378181955
8.259999999999891,2.93,4.021148733506079
8.264999999999892,4.09,4.078891042607281
8.269999999999893,4.09,4.0898908619439664
8.274999999999894,4.09,4.087469775049618
8.279999999999895,4.09,4.082060211849721
8.284999999999895,2.15,4.072667003729082
8.289999999999896,2.15,4.057757607127313
8.294999999999897,4.09,4.035072712024227
8.299999999999898,4.09,4.000646265678213
8.304999999999898,3.43,3.93613467569616
8.3099999999999,3.43,3.8008768565530353
8.3149999999999,2.9,3.6331552744057127
8.3199999999999,2.9,3.9714842737848164
8.324999999999902,4.09,3.922719682506439
8.329999999999902,4.09,3.655635783966419
8.334999999999903,2.92,3.6728807317473646
8.339999999999904,2.92,3.6792611956993615
8.344999999999905,4.09,3.7082518195315477
8.349999999999905,4.09,3.7738988683292236
8.354999999999906,3.52,3.862809437964718
8.359999999999907,3.52,3.9235205901127927
8.364999999999908,3.94,3.960859499837944
8.369999999999909,3.94,3.9864942378877055
8.37499999999991,4.09,4.006561512892141
8.37999999999991,4.09,4.024432091566599
8.384999999999911,2.23,4.041113381258842
8.389999999999912,2.23,4.056430840506894
8.394999999999913,4.09,4.0701041747477875
8.399999999999913,4.09,4.080894903699541
8.404999999999914,4.09,4.082005635736325
8.409999999999915,4.09,4.061237113764449
8.414999999999916,2.5,4.017513585328352
8.419999999999916,2.5,3.9619817433946185
8.424999999999917,4.09,3.903344096302741
8.429999999999918,4.09,3.845222030370717
8.434999999999919,2.93,3.7917770227261585
8.43999999999992,2.93,3.7574921398124626
8.44499999999992,3.53,3.743840140019622
8.449999999999921,3.53,3.762561002761873
8.454999999999922,4.09,3.8055413843393984
8.459999999999923,4.09,3.8167141496065513
8.464999999999923,3.34,3.8142922456606168
8.469999999999924,3.34,3.8197339792913083
8.474999999999925,4.09,3.855530380111469
8.479999999999926,4.09,3.912212845437932
8.484999999999927,2.75,3.982378314934983
8.489999999999927,2.75,4.052456500943806
8.494999999999928,4.09,4.08567338308978
8.499999999999929,4.09,4.090000000000164
8.50499999999993,4.09,4.089999999999969
8.50999999999993,4.09,4.090000000000068
8.514999999999931,2.12,4.089999999999967
8.519999999999932,2.12,4.090000000000008
8.524999999999933,4.09,4.089999999999992
8.529999999999934,4.09,4.089934387170712
8.534999999999934,4.09,4.089523561820607
8.539999999999935,4.09,4.088637630611341
8.544999999999936,2.91,4.087586590602828
8.549999999999937,2.91,4.086255308108847
8.554999999999938,4.09,4.0834412272645935
8.559999999999938,4.09,4.07871381440964
8.564999999999939,3.27,4.0734372145666695
8.56999999999994,3.27,4.068777580053626
8.57499999999994,4.07,4.064276657187006
8.579999999999941,4.07,4.059483056608505
8.584999999999942,4.09,4.055379562678622
8.589999999999943,4.09,4.053517005313091
8.594999999999944,3.89,4.053848558890897
8.599999999999945,3.89,4.055229341138692
8.604999999999945,4.09,4.057359630087529
8.609999999999946,4.09,4.060312998509688
8.614999999999947,2.8,4.063871123176121
8.619999999999948,2.8,4.068102524770654
8.624999999999948,4.09,4.073464571109636
8.62999999999995,4.09,4.079703570420926
8.63499999999995,4.09,4.0852505005895425
8.63999999999995,4.09,4.088320792352034
8.644999999999952,2.71,4.087761331034652
8.649999999999952,2.71,4.08396690007377
8.654999999999953,4.09,4.079039763312418
8.659999999999954,4.09,4.075472049656899
8.664999999999955,3.61,4.074122238042074
8.669999999999956,3.61,4.073895626659414
8.674999999999956,4.09,4.073428275301963
8.679999999999957,4.09,4.07261619580028
8.684999999999958,3.73,4.071990336428808
8.689999999999959,3.73,4.071652660136661
8.69499999999996,4.09,4.0710236955879715
8.69999999999996,4.09,4.0703383774342425
8.704999999999961,4.09,4.070395115890768
8.709999999999962,4.09,4.070963988488208
8.714999999999963,2.69,4.0716890425297265
8.719999999999963,2.69,4.072157504398092
8.724999999999964,4.09,4.070391779145868
8.729999999999965,4.09,4.0651920770783745
8.734999999999966,4.04,4.058398925093305
8.739999999999966,4.04,4.051938669735112
8.744999999999967,3.57,4.04582214608208
8.749999999999968,3.57,4.040250757187913
8.754999999999969,4.09,4.036809522958967
8.75999999999997,4.09,4.036556275979202
8.76499999999997,3.89,4.038308248010963
8.769999999999971,3.89,4.0402560873264
8.774999999999972,4.09,4.0427164554542925
8.779999999999973,4.09,4.047136049289494
8.784999999999973,2.84,4.053645934450877
8.789999999999974,2.84,4.0605922532152166
8.794999999999975,4.09,4.065576713633468
8.799999999999976,4.09,4.068674993298148
8.804999999999977,4.09,4.071160441632257
8.809999999999977,4.09,4.071640555799814
8.814999999999978,2.72,4.0683425538613625
8.819999999999979,2.72,4.062285946781939
8.82499999999998,4.09,4.053715769145723
8.82999999999998,4.09,4.041874374560881
8.834999999999981,3.99,4.029226204386022
8.839999999999982,3.99,4.017961765676416
8.844999999999983,3.6,4.007522902198593
8.849999999999984,3.6,3.9983166422230667
8.854999999999984,4.09,3.993612179571845
8.859999999999985,4.09,3.995200308477751
8.864999999999986,3.81,4.000135164095747
8.869999999999987,3.81,4.004430679430592
8.874999999999988,4.09,4.008554812346233
8.879999999999988,4.09,4.01547692199348
8.88499999999999,3.63,4.026027240667488
8.88999999999999,3.63,4.038026044368352
8.89499999999999,4.09,4.049480787812627
8.899999999999991,4.09,4.061215789319646
8.904999999999992,4.09,4.0736761989770995
8.909999999999993,4.09,4.084016836518349
8.914999999999994,2.59,4.088232651609736
8.919999999999995,2.59,4.086914221688444
8.924999999999995,4.09,4.083269119736183
8.929999999999996,4.09,4.079086828639842
8.934999999999997,4.09,4.075551542340447
8.939999999999998,4.09,4.072933626109986
8.944999999999999,4.09,4.0708157278407455
8.95,4.09,4.0691771814299695
8.955,3.92,4.0683688940572855
8.96,3.92,4.068431204967761
8.965000000000002,4.09,4.069015175021265
8.970000000000002,4.09,4.069883762921011
8.975000000000003,4.09,4.071377824778357
8.980000000000004,4.09,4.074085200009526
8.985000000000005,2.49,4.077951759488844
8.990000000000006,2.49,4.0817028638146615
8.995000000000006,4.09,4.0825729466471365
9.000000000000007,4.09,4.0789808320269465
9.005000000000008,4.09,4.072489718137294
9.010000000000009,4.09,4.065348150566092
9.01500000000001,3.28,4.058116592984956
9.02000000000001,3.28,4.050695798926328
9.025000000000011,4.09,4.0448654151358285
9.030000000000012,4.09,4.042628988741784
9.035000000000013,3.85,4.043116598355883
9.040000000000013,3.85,4.043569825881368
9.045000000000014,4.09,4.043524733694884
9.050000000000015,4.09,4.045339232750738
9.055000000000016,3.66,4.050167217248487
9.060000000000016,3.66,4.056506825550295
9.065000000000017,4.09,4.062899461285504
9.070000000000018,4.09,4.070115809973319
9.075000000000019,4.09,4.07870879918392
9.08000000000002,4.09,4.086064584121169
9.08500000000002,2.74,4.089452717630774
9.090000000000021,2.74,4.089999999999982
9.095000000000022,4.09,4.090000000000004
9.100000000000023,4.09,4.089999999999995
9.105000000000024,4.09,4.089999999999984
9.110000000000024,4.09,4.090000000000005
9.115000000000025,3.13,4.090000000000027
9.120000000000026,3.13,4.090000000000062
9.125000000000027,4.09,4.089999999999887
9.130000000000027,4.09,4.089999999999927
9.135000000000028,4.09,4.089999999999973
9.140000000000029,4.09,4.090000000000028
9.14500000000003,4.09,4.0899999999999865
9.15000000000003,4.09,4.090000000000005
9.155000000000031,4.09,4.089999999999985
9.160000000000032,4.09,4.089999999999888
9.165000000000033,4.09,4.089999999999918
9.170000000000034,4.09,4.090000000000068
9.175000000000034,4.09,4.089999999999938
9.180000000000035,4.09,4.089999999999943
9.185000000000036,2.99,4.090000000000001
9.190000000000037,2.99,4.090000000000012
9.195000000000038,4.09,4.090000000000062
9.200000000000038,4.09,4.090000000000015
9.20500000000004,4.09,4.090000000000004
9.21000000000004,4.09,4.0898067767657
9.21500000000004,3.34,4.088798631313685
9.220000000000041,3.34,4.0864018142782665
9.225000000000042,4.09,4.08260460825423
9.230000000000043,4.09,4.078359105946094
9.235000000000044,4.09,4.074909732189786
9.240000000000045,4.09,4.07247249523563
9.245000000000045,4.09,4.070489950459259
9.250000000000046,4.09,4.068901356258792
9.255000000000047,3.9,4.068088372449417
9.260000000000048,3.9,4.068122459515888
9.265000000000049,4.09,4.068683529341744
9.27000000000005,4.09,4.0695449605780105
9.27500000000005,4.09,4.07105135609367
9.28000000000005,4.09,4.07380247121564
9.285000000000052,3.05,4.077699635135263
9.290000000000052,3.05,4.081882166563616
9.295000000000053,4.09,4.085563549269737
9.300000000000054,4.09,4.0883177030739075
9.305000000000055,4.09,4.089714037661486
9.310000000000056,4.09,4.090000000000003
9.315000000000056,3.63,4.089999999999971
9.320000000000057,3.63,4.089999999999924
9.325000000000058,4.09,4.08999999999987
9.330000000000059,4.09,4.090000000000069
9.33500000000006,4.09,4.0899999999999075
9.34000000000006,4.09,4.0899999999999945
9.345000000000061,4.09,4.089999999999937
9.350000000000062,4.09,4.089999999999998
9.355000000000063,4.09,4.090000000000006
9.360000000000063,4.09,4.0899999999999865
9.365000000000064,4.09,4.089999999999911
9.370000000000065,4.09,4.090000000000001
9.375000000000066,4.09,4.089999999999975
9.380000000000067,4.09,4.089999999999993
9.385000000000067,2.87,4.090000000000066
9.390000000000068,2.87,4.089327737762469
9.395000000000069,4.09,4.08551746236966
9.40000000000007,4.09,4.0778517716713925
9.40500000000007,4.09,4.0690605693503805
9.410000000000071,4.09,4.061055561507374
9.415000000000072,3.44,4.05329810454416
9.420000000000073,3.44,4.045206986545439
9.425000000000074,4.09,4.038565015508085
9.430000000000074,4.09,4.035633445885732
9.435000000000075,3.87,4.0356443097306265
9.440000000000076,3.87,4.0357608702935845
9.445000000000077,4.09,4.035812221050257
9.450000000000077,4.09,4.0385036104976635
9.455000000000078,3.71,4.044750726363882
9.460000000000079,3.71,4.052483144928017
9.46500000000008,4.09,4.059977237312225
9.47000000000008,4.09,4.0680046377219465
9.475000000000081,4.09,4.077270724701349
9.480000000000082,4.09,4.08531267829321
9.485000000000083,2.71,4.08915044527568
9.490000000000084,2.71,4.089865474954707
9.495000000000084,4.09,4.089947851287208
9.500000000000085,4.09,4.089990740109185
9.505000000000086,4.09,4.089999923670381
9.510000000000087,4.09,4.089999999999959
9.515000000000088,3.48,4.089999999999931
9.520000000000088,3.48,4.08999999999996
9.52500000000009,4.09,4.09000000000011
9.53000000000009,4.09,4.089999999999985
9.53500000000009,4.09,4.090000000000027
9.540000000000092,4.09,4.089999999999927
9.545000000000092,4.09,4.090000000000052
9.550000000000093,4.09,4.090000000000007
9.555000000000094,4.09,4.089999999999964
9.560000000000095,4.09,4.0900000000001056
9.565000000000095,4.09,4.08999999999995
9.570000000000096,4.09,4.089999999999989
9.575000000000097,4.09,4.090000000000062
9.580000000000098,4.09,4.090000000000101
9.585000000000099,2.71,4.090000000000001
9.5900000000001,2.71,4.0895437843017
9.5950000000001,4.09,4.087040496152113
9.600000000000101,4.09,4.082173223283467
9.605000000000102,4.09,4.0767072537791975
9.610000000000102,4.09,4.071683602777379
9.615000000000103,3.36,4.066677416300556
9.620000000000104,3.36,4.0613254237446155
9.625000000000105,4.09,4.056694389755188
9.630000000000106,4.09,4.054291685315206
9.635000000000106,3.95,4.053950264093506
9.640000000000107,3.95,4.054115699181343
9.645000000000108,4.09,4.0545852296230995
9.650000000000109,4.09,4.056781194623961
9.65500000000011,3.66,4.061014990761296
9.66000000000011,3.66,4.0659413960172985
9.665000000000111,4.09,4.07060003032174
9.670000000000112,4.09,4.075498539564025
9.675000000000113,4.09,4.0812375279951
9.680000000000113,4.09,4.086624854052627
9.685000000000114,3.04,4.089475456979566
9.690000000000115,3.04,4.08999999999998
9.695000000000116,4.09,4.090000000000036
9.700000000000117,4.09,4.090000000000031
9.705000000000117,4.09,4.089999999999997
9.710000000000118,4.09,4.0899291148747645
9.715000000000119,4.09,4.089420869545323
9.72000000000012,4.09,4.08777276878997
9.72500000000012,4.09,4.084634051461157
9.730000000000121,4.09,4.08079054962162
9.735000000000122,4.09,4.0775526892594005
9.740000000000123,4.09,4.075454494671907
9.745000000000124,4.09,4.07406553887993
9.750000000000124,4.09,4.073067081671763
9.755000000000125,3.82,4.072604355717715
9.760000000000126,3.82,4.072679557654768
9.765000000000127,4.09,4.073015778080627
9.770000000000127,4.09,4.073399571574207
9.775000000000128,4.09,4.073948440050007
9.780000000000129,4.09,4.075163499724761
9.78500000000013,3.71,4.077608063413658
9.79000000000013,3.71,4.081285143897905
9.795000000000131,4.09,4.085286171057482
9.800000000000132,4.09,4.088332595881654
9.805000000000133,4.09,4.089742519210988
9.810000000000134,4.09,4.089999999999922
9.815000000000135,4.09,4.089999999999974
9.820000000000135,4.09,4.089999999999907
9.825000000000136,4.09,4.089999999999969
9.830000000000137,4.09,4.090000000000005
9.835000000000138,4.09,4.0899999999999945
9.840000000000138,4.09,4.090000000000001
9.84500000000014,4.09,4.090000000000001
9.85000000000014,4.09,4.09
9.85500000000014,4.09,4.089999999999999
9.860000000000142,4.09,4.090000000000001
9.865000000000142,4.09,4.090000000000001
9.870000000000143,4.09,4.09
9.875000000000144,4.09,4.089999999999999
9.880000000000145,4.09,4.089999999999998
9.885000000000145,4.09,4.09
9.890000000000146,4.09,4.089999999999998
9.895000000000147,4.09,4.089999999999998
9.900000000000148,4.09,4.089999999999998
9.905000000000149,4.09,4.09
9.91000000000015,4.09,4.089999999999998
9.91500000000015,4.09,4.089999999999998
9.920000000000151,4.09,4.089999999999998
9.925000000000152,4.09,4.09
9.930000000000152,4.09,4.089999999999998
9.935000000000153,4.09,4.089999999999998
9.940000000000154,4.09,4.089999999999998
9.945000000000155,4.09,4.089999999999999
9.950000000000156,4.09,4.09
9.955000000000156,4.09,4.09
9.960000000000157,4.09,4.09
9.965000000000158,4.09,4.090000000000002
9.970000000000159,4.09,4.09000000000001
9.97500000000016,4.09,4.090000000000081
9.98000000000016,4.09,4.090000000000094
9.985000000000161,4.09,4.089999999999708
9.990000000000162,4.09,4.089999999999372
9.995000000000163,4.09,4.089999999999082
10.000000000000163,4.09,4.089999999999551
