time,voltage,lowess
0.005,0.0,0.15637928045750202
0.01,0.0,0.15888377297645342
0.015,0.32,0.16117539059417457
0.02,0.32,0.16330742237525295
0.025,0.1,0.16531297475450216
0.030000000000000002,0.1,0.16719857101026736
0.035,0.2,0.1689755070263395
0.04,0.2,0.17066544551681354
0.045,0.31,0.1722860489611283
0.049999999999999996,0.31,0.17384090315162734
0.05499999999999999,0.04,0.17529385144051943
0.05999999999999999,0.04,0.17655016304268073
0.06499999999999999,0.25,0.17746713993594448
0.06999999999999999,0.25,0.17778038797075912
0.075,0.2,0.1768557156872094
0.08,0.2,0.17405156839748534
0.085,0.15,0.17133007035404324
0.09000000000000001,0.15,0.16882348808745765
0.09500000000000001,0.21,0.16615763017149357
0.10000000000000002,0.21,0.16305592850661974
0.10500000000000002,0.13,0.1596159408714866
0.11000000000000003,0.13,0.15605683315799437
0.11500000000000003,0.07,0.15248247758068964
0.12000000000000004,0.07,0.14885163767127904
0.12500000000000003,0.23,0.1450248480496742
0.13000000000000003,0.23,0.14099377736236585
0.13500000000000004,0.08,0.137072628421598
0.14000000000000004,0.08,0.13363648066240386
0.14500000000000005,0.23,0.13081352571651886
0.15000000000000005,0.23,0.12854519299380024
0.15500000000000005,0.05,0.12672827384219312
0.16000000000000006,0.05,0.1253533750009873
0.16500000000000006,0.09,0.12453247171895536
0.17000000000000007,0.09,0.12439850225659045
0.17500000000000007,0.15,0.12496103226327708
0.18000000000000008,0.15,0.12610758243424355
0.18500000000000008,0.11,0.12775097835368776
0.19000000000000009,0.11,0.12985283302867456
0.1950000000000001,0.07,0.13244873101843443
0.2000000000000001,0.07,0.1355371304614047
0.2050000000000001,0.18,0.13893821065061993
0.2100000000000001,0.18,0.14242881401150478
0.2150000000000001,0.09,0.145927403664677
0.2200000000000001,0.09,0.14943979930107487
0.22500000000000012,0.2,0.1529121192360575
0.23000000000000012,0.2,0.15642612138358933
0.23500000000000013,0.24,0.1602274899790901
0.24000000000000013,0.24,0.16435415855718932
0.24500000000000013,0.15,0.16864436238472547
0.2500000000000001,0.15,0.17297721635730545
0.2550000000000001,0.16,0.17716468144868056
0.2600000000000001,0.16,0.18078445649239241
0.2650000000000001,0.19,0.18340931090279786
0.27000000000000013,0.19,0.1847822706301263
0.27500000000000013,0.11,0.1848714020341487
0.28000000000000014,0.11,0.1838428207075664
0.28500000000000014,0.24,0.18191638920650122
0.29000000000000015,0.24,0.17935442695155931
0.29500000000000015,0.26,0.17653170826866751
0.30000000000000016,0.26,0.1738834104342744
0.30500000000000016,0.14,0.1716395040487647
0.31000000000000016,0.14,0.16976137597873878
0.31500000000000017,0.28,0.1680162908715995
0.3200000000000002,0.28,0.16604507121859194
0.3250000000000002,0.06,0.16356070746495763
0.3300000000000002,0.06,0.16049142671451408
0.3350000000000002,0.1,0.15690675492082554
0.3400000000000002,0.1,0.15282513991660773
0.3450000000000002,0.17,0.14826367885057515
0.3500000000000002,0.17,0.14337763568608344
0.3550000000000002,0.09,0.1385508864072345
0.3600000000000002,0.09,0.1343940112409203
0.3650000000000002,0.21,0.13139198825992163
0.3700000000000002,0.21,0.12970625549275713
0.3750000000000002,0.14,0.12924133767255616
0.3800000000000002,0.14,0.12987432543715574
0.38500000000000023,0.05,0.13149496480403713
0.39000000000000024,0.05,0.1337275231058761
0.39500000000000024,0.19,0.13594216159981226
0.40000000000000024,0.19,0.1375461895474597
0.40500000000000025,0.06,0.1383266238230494
0.41000000000000025,0.06,0.138459787615137
0.41500000000000026,0.07,0.1383201996281673
0.42000000000000026,0.07,0.13837118967410966
0.42500000000000027,0.28,0.13894951509638173
0.43000000000000027,0.28,0.14008659044225813
0.4350000000000003,0.13,0.141739004904264
0.4400000000000003,0.13,0.1440877682708861
0.4450000000000003,0.21,0.14727328637837567
0.4500000000000003,0.21,0.1512729169670893
0.4550000000000003,0.12,0.1559176451454427
0.4600000000000003,0.12,0.1607639554782114
0.4650000000000003,0.03,0.16539222368475145
0.4700000000000003,0.03,0.1696239961848673
0.4750000000000003,0.21,0.17335709097118338
0.4800000000000003,0.21,0.17655238008717838
0.4850000000000003,0.24,0.17941761007677173
0.4900000000000003,0.24,0.1824493906990151
0.49500000000000033,0.03,0.18616158327428642
0.5000000000000003,0.03,0.19080691503886843
0.5050000000000003,0.38,0.19623340211497609
0.5100000000000003,0.38,0.20198330209812196
0.5150000000000003,0.26,0.2075569917537445
0.5200000000000004,0.26,0.2124863796717537
0.5250000000000004,0.1,0.21631348610200543
0.5300000000000004,0.1,0.21877729133640536
0.5350000000000004,0.29,0.21993001847794838
0.5400000000000004,0.29,0.2199471108674412
0.5450000000000004,0.16,0.21915239633436226
0.5500000000000004,0.16,0.21806063512075027
0.5550000000000004,0.32,0.21706005284215144
0.5600000000000004,0.32,0.21631404928235312
0.5650000000000004,0.28,0.21579991302058366
0.5700000000000004,0.28,0.21540648095925433
0.5750000000000004,0.08,0.21519247485266474
0.5800000000000004,0.08,0.21527788008159168
0.5850000000000004,0.2,0.21544505790046828
0.5900000000000004,0.2,0.2152310662887983
0.5950000000000004,0.23,0.21427324937409445
0.6000000000000004,0.23,0.2124575785378309
0.6050000000000004,0.13,0.21002754807556864
0.6100000000000004,0.13,0.20743660798139385
0.6150000000000004,0.36,0.20500636314131032
0.6200000000000004,0.36,0.2028426101052368
0.6250000000000004,0.21,0.20100266062510164
0.6300000000000004,0.21,0.19950705970543803
0.6350000000000005,0.12,0.19819683755777737
0.6400000000000005,0.12,0.19693651818792524
0.6450000000000005,0.32,0.19569587137227845
0.6500000000000005,0.32,0.1945177689149271
0.6550000000000005,0.1,0.19361640874413374
0.6600000000000005,0.1,0.19326860565875856
0.6650000000000005,0.13,0.19362664662068688
0.6700000000000005,0.13,0.19464595252272487
0.6750000000000005,0.26,0.19614789681635783
0.6800000000000005,0.26,0.19785241025984773
0.6850000000000005,0.06,0.19956695354544915
0.6900000000000005,0.06,0.20123899327549122
0.6950000000000005,0.22,0.20274311205267076
0.7000000000000005,0.22,0.2040088750350416
0.7050000000000005,0.28,0.20512368424461183
0.7100000000000005,0.28,0.2061605201836168
0.7150000000000005,0.22,0.20717943369829067
0.7200000000000005,0.22,0.20812537548087673
0.7250000000000005,0.34,0.20868382314000852
0.7300000000000005,0.34,0.20852364464873346
0.7350000000000005,0.2,0.2075763219062869
0.7400000000000005,0.2,0.20595010044673617
0.7450000000000006,0.07,0.2037668949070749
0.7500000000000006,0.07,0.2010457825581302
0.7550000000000006,0.26,0.19768091889448258
0.7600000000000006,0.26,0.19358492040584763
0.7650000000000006,0.19,0.1889515211978056
0.7700000000000006,0.19,0.18417849604920472
0.7750000000000006,0.13,0.17959516509215318
0.7800000000000006,0.13,0.17545430050212954
0.7850000000000006,0.19,0.1718959452891278
0.7900000000000006,0.19,0.16893202308304853
0.7950000000000006,0.12,0.16651305431547783
0.8000000000000006,0.12,0.16450988123975624
0.8050000000000006,0.23,0.16261441252688133
0.8100000000000006,0.23,0.16040810140897263
0.8150000000000006,0.19,0.1576750458878412
0.8200000000000006,0.19,0.1546047046095863
0.8250000000000006,0.05,0.15168081315549845
0.8300000000000006,0.05,0.14932371314192777
0.8350000000000006,0.19,0.14760291586028015
0.8400000000000006,0.19,0.1462311343578516
0.8450000000000006,0.17,0.14491361453102708
0.8500000000000006,0.17,0.14372147300973287
0.8550000000000006,0.1,0.1429536976538277
0.8600000000000007,0.1,0.1428068415476871
0.8650000000000007,0.16,0.14329406750703177
0.8700000000000007,0.16,0.14427403796330004
0.8750000000000007,0.02,0.1456069883123893
0.8800000000000007,0.02,0.1472192224354155
0.8850000000000007,0.21,0.1490275451423263
0.8900000000000007,0.21,0.1510368948684518
0.8950000000000007,0.23,0.15327752311429688
0.9000000000000007,0.23,0.15568051813466882
0.9050000000000007,0.02,0.15822567630691034
0.9100000000000007,0.02,0.16085880693344087
0.9150000000000007,0.28,0.16335728142957318
0.9200000000000007,0.28,0.1653206913679673
0.9250000000000007,0.19,0.16633767904987495
0.9300000000000007,0.19,0.16627326029067932
0.9350000000000007,0.1,0.16527600990968297
0.9400000000000007,0.1,0.1636219658543176
0.9450000000000007,0.21,0.16157381045776342
0.9500000000000007,0.21,0.15931598095912058
0.9550000000000007,0.23,0.15712503473050562
0.9600000000000007,0.23,0.15536767245444727
0.9650000000000007,0.11,0.1541160135157761
0.9700000000000008,0.11,0.1530326642916204
0.9750000000000008,0.16,0.1516839386098996
0.9800000000000008,0.16,0.14988831219824736
0.9850000000000008,0.0,0.1478749371398583
0.9900000000000008,0.0,0.1460839264767856
0.9950000000000008,0.18,0.14472802073641483
1.0000000000000007,0.18,0.14372530276057885
1.0050000000000006,0.21,0.1429427860470095
1.0100000000000005,0.21,0.14231755052013675
1.0150000000000003,0.07,0.14192363457198479
1.0200000000000002,0.07,0.14189219265556272
1.0250000000000001,0.27,0.14221270685709864
1.03,0.27,0.1426353660683012
1.035,0.05,0.1427353581476796
1.0399999999999998,0.05,0.1421482021322952
1.0449999999999997,0.11,0.14079075084719955
1.0499999999999996,0.11,0.13880128761635227
1.0549999999999995,0.3,0.13637750293565462
1.0599999999999994,0.3,0.1337512921157063
1.0649999999999993,0.06,0.1312616090213884
1.0699999999999992,0.06,0.12920628441133222
1.074999999999999,0.09,0.12769094471499234
1.079999999999999,0.09,0.12679942154678148
1.0849999999999989,0.17,0.1265372166814431
1.0899999999999987,0.17,0.12672263295355451
1.0949999999999986,0.05,0.12721095803277643
1.0999999999999985,0.05,0.1279380291732039
1.1049999999999984,0.1,0.12874906004576847
1.1099999999999983,0.1,0.12958520783894123
1.1149999999999982,0.17,0.13069182155277823
1.119999999999998,0.17,0.13236901262237907
1.124999999999998,0.09,0.13476068705693717
1.129999999999998,0.09,0.13785489794573696
1.1349999999999978,0.18,0.14138734766708674
1.1399999999999977,0.18,0.14503043971570384
1.1449999999999976,0.23,0.14866846147216708
1.1499999999999975,0.23,0.15224155218726185
1.1549999999999974,0.05,0.1556197631636229
1.1599999999999973,0.05,0.158623616730448
1.1649999999999971,0.22,0.1610427374198127
1.169999999999997,0.22,0.16271220651765975
1.174999999999997,0.14,0.1636058795757337
1.1799999999999968,0.14,0.16370055575436343
1.1849999999999967,0.17,0.16293393373381237
1.1899999999999966,0.17,0.16119298262366313
1.1949999999999965,0.23,0.15836641894855824
1.1999999999999964,0.23,0.15455219829512298
1.2049999999999963,0.13,0.1501120169952121
1.2099999999999962,0.13,0.14563317345450974
1.214999999999996,0.16,0.14157527941081308
1.219999999999996,0.16,0.1379969577337255
1.2249999999999959,0.18,0.13468471170475857
1.2299999999999958,0.18,0.13144297841114447
1.2349999999999957,0.1,0.1282504564337972
1.2399999999999956,0.1,0.12500579970708964
1.2449999999999954,0.07,0.12144407339598935
1.2499999999999953,0.07,0.11738333627916445
1.2549999999999952,0.01,0.11289927581658389
1.2599999999999951,0.01,0.10831465008208249
1.264999999999995,0.08,0.10404125269198593
1.269999999999995,0.08,0.1004751199018641
1.2749999999999948,0.29,0.09784357133865461
1.2799999999999947,0.29,0.09614262341253732
1.2849999999999946,0.07,0.09530595436691792
1.2899999999999945,0.07,0.09533315041521444
1.2949999999999944,0.08,0.09615971117969295
1.2999999999999943,0.08,0.09747818259077945
1.3049999999999942,0.05,0.09880773143734572
1.309999999999994,0.05,0.09966297112539589
1.314999999999994,0.04,0.09979983571931574
1.3199999999999938,0.04,0.09940164012881504
1.3249999999999937,0.14,0.09891515394910033
1.3299999999999936,0.14,0.09875585076788987
1.3349999999999935,0.15,0.09932083706083544
1.3399999999999934,0.15,0.10098128325948541
1.3449999999999933,0.02,0.10395581402056045
1.3499999999999932,0.02,0.10838394202552222
1.354999999999993,0.19,0.1140803378269918
1.359999999999993,0.19,0.12046227818636375
1.3649999999999929,0.07,0.12691010594827637
1.3699999999999928,0.07,0.13283656626133902
1.3749999999999927,0.06,0.1378164564978205
1.3799999999999926,0.06,0.1417743049834157
1.3849999999999925,0.25,0.14489263330890853
1.3899999999999924,0.25,0.1473267109187115
1.3949999999999922,0.1,0.1491801500203523
1.3999999999999921,0.1,0.15058301545782335
1.404999999999992,0.19,0.15159769509748966
1.409999999999992,0.19,0.15221922389853804
1.4149999999999918,0.37,0.15239398349442587
1.4199999999999917,0.37,0.15206944143119586
1.4249999999999916,0.06,0.15127555758928515
1.4299999999999915,0.06,0.1500586717536272
1.4349999999999914,0.1,0.1483273602201005
1.4399999999999913,0.1,0.14596302161922484
1.4449999999999912,0.19,0.14305201573410425
1.449999999999991,0.19,0.1398522441642425
1.454999999999991,0.05,0.13668712467043886
1.4599999999999909,0.05,0.13386689411733346
1.4649999999999908,0.15,0.1315096096740871
1.4699999999999906,0.15,0.12961069215546311
1.4749999999999905,0.11,0.12828061223884993
1.4799999999999904,0.11,0.12770166591780988
1.4849999999999903,0.08,0.1278917885406457
1.4899999999999902,0.08,0.12860686861031626
1.4949999999999901,0.21,0.1293471590611971
1.49999999999999,0.21,0.12961802610094694
1.50499999999999,0.1,0.12931950105759252
1.5099999999999898,0.1,0.12873226559295065
1.5149999999999897,0.14,0.1282252274114021
1.5199999999999896,0.14,0.12802878938090104
1.5249999999999895,0.21,0.12812455963575742
1.5299999999999894,0.21,0.12831383417608955
1.5349999999999893,0.04,0.12842896534769105
1.5399999999999892,0.04,0.1282955532843141
1.544999999999989,0.17,0.12777971599426846
1.549999999999989,0.17,0.12707194260555393
1.5549999999999888,0.11,0.12650166624085177
1.5599999999999887,0.11,0.12619116431301924
1.5649999999999886,-0.0,0.12622297963100715
1.5699999999999885,-0.0,0.12690441329013993
1.5749999999999884,0.23,0.12847911932566244
1.5799999999999883,0.23,0.13087498577967568
1.5849999999999882,0.17,0.13389209487039083
1.589999999999988,0.17,0.13729165686041336
1.594999999999988,0.06,0.1407553705310313
1.5999999999999879,0.06,0.1438702674148105
1.6049999999999878,0.1,0.14625120512138956
1.6099999999999877,0.1,0.14780267105426242
1.6149999999999876,0.26,0.14883767696969782
1.6199999999999875,0.26,0.14992289552054253
1.6249999999999873,0.08,0.15139633126860913
1.6299999999999872,0.08,0.15320186603617195
1.6349999999999871,0.36,0.15529575627873157
1.639999999999987,0.36,0.15798818862581226
1.644999999999987,0.06,0.16163829532133422
1.6499999999999868,0.06,0.16606118814371654
1.6549999999999867,0.14,0.1705783033750025
1.6599999999999866,0.14,0.17451438346486553
1.6649999999999865,0.09,0.17742746180453575
1.6699999999999864,0.09,0.179167204230938
1.6749999999999863,0.15,0.17996403681444137
1.6799999999999862,0.15,0.18027991996758674
1.684999999999986,0.34,0.18054760504561077
1.689999999999986,0.34,0.18089670423326465
1.6949999999999859,0.12,0.18112740555505724
1.6999999999999857,0.12,0.18115697461743
1.7049999999999856,0.35,0.18129301333852196
1.7099999999999855,0.35,0.1821007432330573
1.7149999999999854,0.13,0.1837311114114527
1.7199999999999853,0.13,0.18590869057092965
1.7249999999999852,0.16,0.1885261848213047
1.729999999999985,0.16,0.19166242933562294
1.734999999999985,0.16,0.19544969960656633
1.739999999999985,0.16,0.20028312340089577
1.7449999999999848,0.19,0.20658059181476973
1.7499999999999847,0.19,0.2141743869433875
1.7549999999999846,0.04,0.22262279867634302
1.7599999999999845,0.04,0.23186887662939473
1.7649999999999844,0.17,0.24189872079050523
1.7699999999999843,0.17,0.25237087942831044
1.7749999999999841,0.68,0.26296024086207903
1.779999999999984,0.68,0.27324393187661344
1.784999999999984,0.19,0.2826758812984023
1.7899999999999838,0.19,0.2914683576819194
1.7949999999999837,0.35,0.3003751073985448
1.7999999999999836,0.35,0.30961834880918565
1.8049999999999835,0.54,0.3190474183809268
1.8099999999999834,0.54,0.3288927603266669
1.8149999999999833,0.17,0.33946446461875235
1.8199999999999832,0.17,0.35073904895317465
1.824999999999983,0.54,0.3624687229502153
1.829999999999983,0.54,0.37438801671345406
1.8349999999999829,0.11,0.38658608644126574
1.8399999999999828,0.11,0.3992979462986626
1.8449999999999827,0.12,0.4128688587749629
1.8499999999999825,0.12,0.4285325776339274
1.8549999999999824,0.74,0.4480236043554638
1.8599999999999823,0.74,0.4732908310704985
1.8649999999999822,0.26,0.5056272413406173
1.8699999999999821,0.26,0.5445735097919798
1.874999999999982,0.71,0.5883079194657221
1.879999999999982,0.71,0.6350896593543072
1.8849999999999818,0.59,0.6839646891504237
1.8899999999999817,0.59,0.734648445528417
1.8949999999999816,1.82,0.7867455876500724
1.8999999999999815,1.82,0.8379124113366178
1.9049999999999814,0.54,0.8844227090893879
1.9099999999999813,0.54,0.9233401931460734
1.9149999999999812,1.3,0.9542393478890904
1.919999999999981,1.3,0.9787980395011199
1.924999999999981,1.35,0.9992227445608372
1.9299999999999808,1.35,1.0168911360985153
1.9349999999999807,1.13,1.0314684457507226
1.9399999999999806,1.13,1.042115922752388
1.9449999999999805,3.97,1.0479705367023995
1.9499999999999804,3.97,1.048266195407353
1.9549999999999803,1.54,1.0433228281486913
1.9599999999999802,1.54,1.0348376749794617
1.96499999999998,0.96,1.0248186635724987
1.96999999999998,0.96,1.014430960576131
1.9749999999999799,0.85,1.0031943499001446
1.9799999999999798,0.85,0.9898442776200094
1.9849999999999797,0.66,0.9736403417184932
1.9899999999999796,0.66,0.9540042888383292
1.9949999999999795,0.64,0.9306345658684964
1.9999999999999793,0.64,0.9048249968597978
2.0049999999999795,1.41,0.8785086912766087
2.0099999999999794,1.41,0.8527169998610559
2.0149999999999793,1.23,0.8279385067462728
2.019999999999979,1.23,0.8046480446410572
2.024999999999979,1.77,0.7836187949539463
2.029999999999979,1.77,0.7656945499491673
2.034999999999979,0.9,0.7502562692773233
2.0399999999999787,0.9,0.7349152804922684
2.0449999999999786,0.32,0.7171896031569235
2.0499999999999785,0.32,0.695322826213945
2.0549999999999784,0.45,0.6688022847868793
2.0599999999999783,0.45,0.6384540132946944
2.064999999999978,0.82,0.6066890686562646
2.069999999999978,0.82,0.5770705479311737
2.074999999999978,0.27,0.5526637430403776
2.079999999999978,0.27,0.5348003973157154
2.0849999999999778,0.37,0.5229374553054552
2.0899999999999777,0.37,0.5152336676668443
2.0949999999999775,0.8,0.5093884684269259
2.0999999999999774,0.8,0.5038801121747664
2.1049999999999773,0.26,0.4983267547081523
2.1099999999999772,0.26,0.4927966515289862
2.114999999999977,0.85,0.4869966606169422
2.119999999999977,0.85,0.4802809503257789
2.124999999999977,0.1,0.4724368140181236
2.129999999999977,0.1,0.4636011892652751
2.1349999999999767,0.65,0.4540370303201132
2.1399999999999766,0.65,0.44379753208707823
2.1449999999999765,0.68,0.4322215526381255
2.1499999999999764,0.68,0.4185430477442584
2.1549999999999763,0.15,0.40278881002527805
2.159999999999976,0.15,0.3854380846145467
2.164999999999976,0.35,0.3671477977598605
2.169999999999976,0.35,0.3484917834261378
2.174999999999976,0.54,0.32962918423410775
2.1799999999999757,0.54,0.31123121351009025
2.1849999999999756,0.05,0.29460640126132986
2.1899999999999755,0.05,0.28045076730252655
2.1949999999999754,0.27,0.2685028991243184
2.1999999999999753,0.27,0.2584118111329905
2.204999999999975,0.24,0.2504218086734136
2.209999999999975,0.24,0.24479381513265158
2.214999999999975,0.03,0.24109800293897488
2.219999999999975,0.03,0.23861608462191666
2.2249999999999748,0.17,0.2367692297444005
2.2299999999999747,0.17,0.23546984220399814
2.2349999999999746,0.24,0.23533360392127708
2.2399999999999745,0.24,0.23698991101927763
2.2449999999999743,0.46,0.24048886317045146
2.2499999999999742,0.46,0.2451888811867107
2.254999999999974,0.3,0.25001839073377785
2.259999999999974,0.3,0.25420988084879637
2.264999999999974,0.12,0.2576378054917528
2.269999999999974,0.12,0.2601376650319853
2.2749999999999737,0.32,0.26135180176445477
2.2799999999999736,0.32,0.2612220136027827
2.2849999999999735,0.27,0.25993198418558244
2.2899999999999734,0.27,0.25776101334109425
2.2949999999999733,0.28,0.2552673002809186
2.299999999999973,0.28,0.2532191696874446
2.304999999999973,0.32,0.2522948792455334
2.309999999999973,0.32,0.25269673447959673
2.314999999999973,0.1,0.25396671828383305
2.3199999999999728,0.1,0.25496967735230996
2.3249999999999726,0.24,0.25437664773654617
2.3299999999999725,0.24,0.25153682361097734
2.3349999999999724,0.18,0.24654393167795016
2.3399999999999723,0.18,0.23977800300312113
2.344999999999972,0.37,0.23191999064963267
2.349999999999972,0.37,0.22383356466619952
2.354999999999972,0.25,0.21629483448709239
2.359999999999972,0.25,0.21038276563774516
2.364999999999972,0.79,0.2069469899228438
2.3699999999999717,0.79,0.20572332042676333
2.3749999999999716,0.13,0.2058456378878279
2.3799999999999715,0.13,0.20664796086731196
2.3849999999999714,-0.01,0.20790038206940187
2.3899999999999713,-0.01,0.21021459914759552
2.394999999999971,0.19,0.21507401886206245
2.399999999999971,0.19,0.22420823432364265
2.404999999999971,0.03,0.23863670982062524
2.409999999999971,0.03,0.2576310620340914
2.4149999999999707,0.18,0.27942983185905296
2.4199999999999706,0.18,0.30264531070213246
2.4249999999999705,0.6,0.3261158106702116
2.4299999999999704,0.6,0.3482818771206745
2.4349999999999703,-0.0,0.36775449794763465
2.43999999999997,-0.0,0.3838946248839955
2.44499999999997,1.0,0.3969477090018102
2.44999999999997,1.0,0.40748918988768434
2.45499999999997,0.78,0.416047519124305
2.4599999999999698,0.78,0.42287794559243785
2.4649999999999697,0.76,0.4281108297827922
2.4699999999999696,0.76,0.43172419142719964
2.4749999999999694,0.08,0.432833268510033
2.4799999999999693,0.08,0.42995662810406304
2.4849999999999692,0.68,0.42222354759000585
2.489999999999969,0.68,0.4097531596060767
2.494999999999969,0.22,0.3933773692670699
2.499999999999969,0.22,0.3742186309936087
2.504999999999969,0.27,0.3533040142567929
2.5099999999999687,0.27,0.3324567717278307
2.5149999999999686,0.25,0.3141411162808622
2.5199999999999685,0.25,0.29997144293509115
2.5249999999999684,0.13,0.2901502753607708
2.5299999999999683,0.13,0.28400686054343455
2.534999999999968,0.55,0.280324200272451
2.539999999999968,0.55,0.2776571230956218
2.544999999999968,0.11,0.2747090377868908
2.549999999999968,0.11,0.27093923847388285
2.5549999999999677,0.21,0.2668585923808894
2.5599999999999676,0.21,0.26313004072052704
2.5649999999999675,0.25,0.25979464381349204
2.5699999999999674,0.25,0.25675909880724496
2.5749999999999673,0.56,0.254357202421557
2.579999999999967,0.56,0.2531945590857155
2.584999999999967,0.33,0.2536392789364939
2.589999999999967,0.33,0.2555583821276214
2.594999999999967,0.12,0.2586878775707717
2.599999999999967,0.12,0.2631555637296914
2.6049999999999667,0.03,0.26926667418682904
2.6099999999999666,0.03,0.27676196734607417
2.6149999999999665,0.23,0.2850712938508973
2.6199999999999664,0.23,0.29450160802200986
2.6249999999999662,0.32,0.30612918294213254
2.629999999999966,0.32,0.32026699987466356
2.634999999999966,0.26,0.33609977915704364
2.639999999999966,0.26,0.35196296591728005
2.644999999999966,0.5,0.3661989620177627
2.6499999999999657,0.5,0.3786583827798232
2.6549999999999656,0.29,0.3902336878290491
2.6599999999999655,0.29,0.4018653914734336
2.6649999999999654,0.71,0.41412730915205515
2.6699999999999653,0.71,0.426971921437131
2.674999999999965,1.3,0.43992251785025127
2.679999999999965,1.3,0.45221745767040056
2.684999999999965,0.66,0.46318988527901583
2.689999999999965,0.66,0.47210494748472825
2.6949999999999648,0.03,0.4782159425644086
2.6999999999999647,0.03,0.4810429661425243
2.7049999999999645,0.26,0.48037610699745753
2.7099999999999644,0.26,0.47639079937830536
2.7149999999999643,0.71,0.46960433833311793
2.7199999999999642,0.71,0.4604412255142277
2.724999999999964,0.6,0.4489944150688708
2.729999999999964,0.6,0.4357447628687578
2.734999999999964,0.52,0.4216548117294401
2.739999999999964,0.52,0.40714435526289827
2.7449999999999637,0.43,0.3918076148199205
2.7499999999999636,0.43,0.37540418363824585
2.7549999999999635,0.2,0.3578431289857612
2.7599999999999634,0.2,0.3389129813517582
2.7649999999999633,0.31,0.3185998750369844
2.769999999999963,0.31,0.297232199042657
2.774999999999963,0.37,0.27560570205166085
2.779999999999963,0.37,0.2546880463506042
2.784999999999963,0.07,0.235423013300365
2.7899999999999627,0.07,0.21859108308740383
2.7949999999999626,0.13,0.20449814395784266
2.7999999999999625,0.13,0.19300190127816375
2.8049999999999624,0.06,0.1836323861101489
2.8099999999999623,0.06,0.17562475569997615
2.814999999999962,0.23,0.16817298057304725
2.819999999999962,0.23,0.16064035883502634
2.824999999999962,0.18,0.15273602760072238
2.829999999999962,0.18,0.1446624594521118
2.8349999999999618,0.11,0.13711162391216195
2.8399999999999617,0.11,0.13096655901761536
2.8449999999999616,0.12,0.1267481240017021
2.8499999999999615,0.12,0.12433935329029454
2.8549999999999613,0.65,0.12313413956121143
2.8599999999999612,0.65,0.1223499320971452
2.864999999999961,0.02,0.12143583106189201
2.869999999999961,0.02,0.11997638146417305
2.874999999999961,-0.01,0.1178162342489834
2.879999999999961,-0.01,0.11543292648522319
2.8849999999999607,-0.0,0.1136110607554339
2.8899999999999606,-0.0,0.11276712804146367
2.8949999999999605,0.1,0.1128660417732361
2.8999999999999604,0.1,0.11375547301774576
2.9049999999999603,0.29,0.1154441861151087
2.90999999999996,0.29,0.11836234260678401
2.91499999999996,0.13,0.12302700990584933
2.91999999999996,0.13,0.12952743409433232
2.92499999999996,0.04,0.1375713501813917
2.9299999999999597,0.04,0.1467203651814711
2.9349999999999596,0.08,0.1564305970386771
2.9399999999999595,0.08,0.16640808193777842
2.9449999999999594,0.42,0.17667525368294215
2.9499999999999593,0.42,0.18700661035004565
2.954999999999959,0.09,0.1970212352588537
2.959999999999959,0.09,0.20648264117401854
2.964999999999959,0.05,0.21537459200088
2.969999999999959,0.05,0.2237573013186783
2.974999999999959,0.38,0.23171339812810934
2.9799999999999587,0.38,0.23947177846989726
2.9849999999999586,0.22,0.246974501944862
2.9899999999999585,0.22,0.2538582980157712
2.9949999999999584,0.34,0.2598580881129501
2.9999999999999583,0.34,0.2648053561924738
3.004999999999958,0.46,0.2687505636840222
3.009999999999958,0.46,0.27196464472154236
3.014999999999958,0.16,0.27453478816237775
3.019999999999958,0.16,0.2762330933305349
3.0249999999999577,0.27,0.2765851969239578
3.0299999999999576,0.27,0.27524670387691835
3.0349999999999575,0.22,0.27228545175289554
3.0399999999999574,0.22,0.26779300100950176
3.0449999999999573,0.4,0.26197360882933035
3.049999999999957,0.4,0.2553871404293603
3.054999999999957,0.22,0.24847966996045004
3.059999999999957,0.22,0.24148728122729235
3.064999999999957,0.15,0.23482579144143675
3.0699999999999568,0.15,0.2292551828189453
3.0749999999999567,1.02,0.22526666129995507
3.0799999999999566,1.02,0.2226174837980023
3.0849999999999564,0.36,0.22071229970048223
3.0899999999999563,0.36,0.21949137652930942
3.0949999999999562,0.12,0.2194553137136226
3.099999999999956,0.12,0.22101603675816597
3.104999999999956,0.06,0.2242794763235556
3.109999999999956,0.06,0.22907467413299598
3.114999999999956,0.25,0.235300516998907
3.1199999999999557,0.25,0.24296208809709421
3.1249999999999556,0.14,0.25164930555610776
3.1299999999999555,0.14,0.26055885698249176
3.1349999999999554,0.42,0.2691521034919978
3.1399999999999553,0.42,0.2777166231889805
3.144999999999955,0.15,0.2869345786893558
3.149999999999955,0.15,0.29704631945391935
3.154999999999955,0.61,0.30798363380475924
3.159999999999955,0.61,0.3195705244637187
3.1649999999999547,0.42,0.3311634054084515
3.1699999999999546,0.42,0.3416613444433741
3.1749999999999545,0.16,0.3501748532353951
3.1799999999999544,0.16,0.3564074752668165
3.1849999999999543,0.46,0.36071961139122727
3.189999999999954,0.46,0.3640538677069648
3.194999999999954,0.13,0.3672606286774733
3.199999999999954,0.13,0.3708285508176362
3.204999999999954,0.68,0.3753206790650212
3.209999999999954,0.68,0.3813255128831316
3.2149999999999537,0.31,0.3889938450571674
3.2199999999999536,0.31,0.39762093626120687
3.2249999999999535,0.47,0.40541506314682746
3.2299999999999534,0.47,0.4097155860550927
3.2349999999999532,0.0,0.40866421970359323
3.239999999999953,0.0,0.4028192894404288
3.244999999999953,0.44,0.3946448649047221
3.249999999999953,0.44,0.3869580083377636
3.254999999999953,0.78,0.38147400774966644
3.2599999999999527,0.78,0.37901020352022396
3.2649999999999526,1.41,0.37941181501546795
3.2699999999999525,1.41,0.38173840142387583
3.2749999999999524,1.23,0.3853866047910311
3.2799999999999523,1.23,0.3900774652510708
3.284999999999952,0.15,0.39471948994753653
3.289999999999952,0.15,0.3977917948592693
3.294999999999952,0.3,0.3984696872742102
3.299999999999952,0.3,0.39622487286522373
3.3049999999999518,0.29,0.39074873256064274
3.3099999999999516,0.29,0.3830578987491166
3.3149999999999515,0.98,0.37599720151816957
3.3199999999999514,0.98,0.3718235164146235
3.3249999999999513,0.52,0.37031814578931355
3.329999999999951,0.52,0.370453196297409
3.334999999999951,0.33,0.3713400997972734
3.339999999999951,0.33,0.37220509110516775
3.344999999999951,0.49,0.3725472869935098
3.349999999999951,0.49,0.3723377170800146
3.3549999999999507,0.35,0.37166173308191364
3.3599999999999506,0.35,0.37019629501045415
3.3649999999999505,0.13,0.3679248630948645
3.3699999999999504,0.13,0.3656033110163651
3.3749999999999503,0.33,0.3643722079986814
3.37999999999995,0.33,0.36542438168693536
3.38499999999995,0.24,0.36939130516583935
3.38999999999995,0.24,0.3757157568001185
3.39499999999995,0.88,0.383509477106247
3.3999999999999497,0.88,0.39272398206371123
3.4049999999999496,0.12,0.40356110363537284
3.4099999999999495,0.12,0.4161441032981755
3.4149999999999494,0.72,0.4305407149889721
3.4199999999999493,0.72,0.44601295375826977
3.424999999999949,0.14,0.4611458517263305
3.429999999999949,0.14,0.4748258100381537
3.434999999999949,0.61,0.48648818741037014
3.439999999999949,0.61,0.49572399241104154
3.4449999999999488,0.7,0.5024219880449692
3.4499999999999487,0.7,0.5065077250854727
3.4549999999999486,0.3,0.5077441950252812
3.4599999999999485,0.3,0.5059747272886412
3.4649999999999483,0.72,0.5014869334515845
3.4699999999999482,0.72,0.49475183207128903
3.474999999999948,0.69,0.4854199628177529
3.479999999999948,0.69,0.47298408490054644
3.484999999999948,0.24,0.45781523505004956
3.489999999999948,0.24,0.4408392904622723
3.4949999999999477,0.63,0.4230302494249661
3.4999999999999476,0.63,0.40523983077488
3.5049999999999475,0.32,0.38825205578585786
3.5099999999999474,0.32,0.37277370180059594
3.5149999999999473,0.32,0.3590155275186537
3.519999999999947,0.32,0.3466677090313169
3.524999999999947,0.15,0.33547236104022893
3.529999999999947,0.15,0.32552318037681155
3.534999999999947,1.29,0.31728373810520577
3.5399999999999467,1.29,0.31082570992514014
3.5449999999999466,0.17,0.3054768937731582
3.5499999999999465,0.17,0.3005932303225863
3.5549999999999464,0.43,0.2960641466962267
3.5599999999999463,0.43,0.2927052047834275
3.564999999999946,0.16,0.2918065583903487
3.569999999999946,0.16,0.2938123956264586
3.574999999999946,0.47,0.29810025681111735
3.579999999999946,0.47,0.30386279539271216
3.584999999999946,0.99,0.310462142514149
3.5899999999999457,0.99,0.31708041707543483
3.5949999999999456,0.2,0.3229701701193903
3.5999999999999455,0.2,0.32807467749192254
3.6049999999999454,0.22,0.33294585379575875
3.6099999999999453,0.22,0.3379661687291137
3.614999999999945,0.29,0.34311831468385784
3.619999999999945,0.29,0.3483062806422627
3.624999999999945,0.57,0.3537213351312654
3.629999999999945,0.57,0.35965948453531077
3.6349999999999447,0.27,0.36591983934317307
3.6399999999999446,0.27,0.3718913734907227
3.6449999999999445,0.37,0.37712353846763824
3.6499999999999444,0.37,0.3813354874462754
3.6549999999999443,0.31,0.38416221492491875
3.659999999999944,0.31,0.38525523895972574
3.664999999999944,0.73,0.3844348309833527
3.669999999999944,0.73,0.38188927817523827
3.674999999999944,0.46,0.37819216962361263
3.6799999999999438,0.46,0.3739170506556242
3.6849999999999437,0.28,0.3694871628135613
3.6899999999999435,0.28,0.36506103271575924
3.6949999999999434,0.48,0.3605423822707921
3.6999999999999433,0.48,0.35547420802258495
3.7049999999999432,0.07,0.34906286702706013
3.709999999999943,0.07,0.3410691521403654
3.714999999999943,0.4,0.332193414248187
3.719999999999943,0.4,0.3235412573948142
3.724999999999943,0.2,0.31615789518508225
3.7299999999999427,0.2,0.3109900956031094
3.7349999999999426,0.38,0.30867460153084914
3.7399999999999425,0.38,0.30884042107861304
3.7449999999999424,0.34,0.3101791398971241
3.7499999999999423,0.34,0.31121456652734447
3.754999999999942,0.25,0.3107959492751376
3.759999999999942,0.25,0.30830706560835847
3.764999999999942,0.16,0.30373626765397693
3.769999999999942,0.16,0.297365262683582
3.7749999999999417,0.44,0.28954833049650935
3.7799999999999416,0.44,0.280917997550603
3.7849999999999415,0.44,0.27228875170607797
3.7899999999999414,0.44,0.263874105735006
3.7949999999999413,0.47,0.25531746422158696
3.799999999999941,0.47,0.24648036678109117
3.804999999999941,0.05,0.23745448855825899
3.809999999999941,0.05,0.22792831057201557
3.814999999999941,0.04,0.21734108877760827
3.8199999999999408,0.04,0.2055455607792077
3.8249999999999407,0.17,0.19283619415693284
3.8299999999999406,0.17,0.17980675723775746
3.8349999999999405,0.2,0.16726879365948827
3.8399999999999403,0.2,0.15593674496597013
3.8449999999999402,0.21,0.14652241370488667
3.84999999999994,0.21,0.13980058137870086
3.85499999999994,-0.02,0.13607154579196074
3.85999999999994,-0.02,0.13488702113792042
3.86499999999994,0.2,0.13525576819315124
3.8699999999999397,0.2,0.13592638416202843
3.8749999999999396,-0.02,0.13568838283237888
3.8799999999999395,-0.02,0.13377091130313756
3.8849999999999394,0.25,0.13018093566785352
3.8899999999999393,0.25,0.12527095603232546
3.894999999999939,0.19,0.11951475839103652
3.899999999999939,0.19,0.11346774054704974
3.904999999999939,0.0,0.1074875568221303
3.909999999999939,0.0,0.10163330682146729
3.9149999999999388,0.63,0.09584131971989114
3.9199999999999386,0.63,0.090150018123152
3.9249999999999385,0.04,0.08448953760375986
3.9299999999999384,0.04,0.07865001623541587
3.9349999999999383,0.03,0.07263581816144195
3.939999999999938,0.03,0.06641292156306988
3.944999999999938,0.01,0.05986022834905062
3.949999999999938,0.01,0.05349362366907836
3.954999999999938,-0.04,0.048501576184632404
3.959999999999938,-0.04,0.04591843530717357
3.9649999999999377,0.05,0.04608542648630882
3.9699999999999376,0.05,0.04873563701083923
3.9749999999999375,-0.02,0.053228455126297196
3.9799999999999374,-0.02,0.05887090074430408
3.9849999999999373,0.13,0.06528767442038505
3.989999999999937,0.13,0.07252447243194082
3.994999999999937,0.01,0.08073224731347727
3.999999999999937,0.01,0.0902577975738743
4.004999999999937,-0.01,0.10141804557010292
4.009999999999937,-0.01,0.11390051941094649
4.014999999999937,0.54,0.12698507846077828
4.0199999999999365,0.54,0.13972993645719448
4.024999999999936,0.18,0.15127673954537432
4.029999999999936,0.18,0.16136715550021638
4.034999999999936,0.02,0.1702693302587833
4.039999999999936,0.02,0.1785451493925604
4.044999999999936,0.11,0.186578420849147
4.049999999999936,0.11,0.19420718914222887
4.054999999999936,0.33,0.20102745521564655
4.059999999999936,0.33,0.20641561540287928
4.0649999999999356,0.51,0.2096248621848706
4.0699999999999354,0.51,0.2102767446698533
4.074999999999935,0.12,0.2085169104191915
4.079999999999935,0.12,0.204851541679857
4.084999999999935,-0.03,0.19996134055835293
4.089999999999935,-0.03,0.1942254745007866
4.094999999999935,0.33,0.18743987552028551
4.099999999999935,0.33,0.17957335999466362
4.104999999999935,0.54,0.1709637884586861
4.109999999999935,0.54,0.16193220644996906
4.1149999999999345,0.08,0.1529786534145515
4.119999999999934,0.08,0.14486017230315934
4.124999999999934,-0.02,0.13834823466016882
4.129999999999934,-0.02,0.1339785595325777
4.134999999999934,0.05,0.1316656566489039
4.139999999999934,0.05,0.13066027284994833
4.144999999999934,0.09,0.12987957100566896
4.149999999999934,0.09,0.12855126685997878
4.154999999999934,0.03,0.12675668569853174
4.1599999999999335,0.03,0.1253621165795323
4.164999999999933,0.25,0.12556351461365672
4.169999999999933,0.25,0.12797584920007657
4.174999999999933,0.05,0.132191031999549
4.179999999999933,0.05,0.13720169227696732
4.184999999999933,0.26,0.1418705907901156
4.189999999999933,0.26,0.14533514004401377
4.194999999999933,0.31,0.1472400719950847
4.199999999999933,0.31,0.14752778486620005
4.204999999999933,0.06,0.14631082174424548
4.2099999999999325,0.06,0.14370746894068856
4.214999999999932,0.04,0.1398543100883045
4.219999999999932,0.04,0.13502945868311958
4.224999999999932,0.31,0.12959130006158268
4.229999999999932,0.31,0.12389110320397566
4.234999999999932,0.11,0.11819478474603015
4.239999999999932,0.11,0.11247774645296726
4.244999999999932,0.01,0.10652371761356143
4.249999999999932,0.01,0.10054712224921045
4.2549999999999315,0.05,0.09519918241246562
4.259999999999931,0.05,0.09089935437702755
4.264999999999931,0.08,0.0875527883256231
4.269999999999931,0.08,0.08479931245790706
4.274999999999931,0.08,0.0822614616974001
4.279999999999931,0.08,0.07994852361979642
4.284999999999931,0.14,0.07831997420813627
4.289999999999931,0.14,0.07780840303708368
4.294999999999931,0.05,0.07868318428284907
4.2999999999999305,0.05,0.0810728937587772
4.30499999999993,-0.02,0.0847963289481547
4.30999999999993,-0.02,0.0897734116484663
4.31499999999993,0.19,0.09609296016991135
4.31999999999993,0.19,0.10343284213200571
4.32499999999993,0.06,0.11119811185862265
4.32999999999993,0.06,0.11870698093289453
4.33499999999993,0.04,0.12531872872262514
4.33999999999993,0.04,0.1305501751108629
4.34499999999993,0.18,0.13416768136213675
4.3499999999999295,0.18,0.1362106394730349
4.354999999999929,0.1,0.13691464283683144
4.359999999999929,0.1,0.1367308075863296
4.364999999999929,0.28,0.13621571065053423
4.369999999999929,0.28,0.13616254464537353
4.374999999999929,0.53,0.13727164131105452
4.379999999999929,0.53,0.13968575938431563
4.384999999999929,-0.0,0.14318448818215096
4.389999999999929,-0.0,0.147414422373488
4.3949999999999285,0.07,0.1517229814717404
4.399999999999928,0.07,0.15512998939570757
4.404999999999928,0.03,0.15693240954082516
4.409999999999928,0.03,0.15710746957483165
4.414999999999928,0.04,0.15614952150675185
4.419999999999928,0.04,0.15473278720935532
4.424999999999928,0.18,0.1534521236848177
4.429999999999928,0.18,0.15276804701937127
4.434999999999928,0.44,0.15305179185042184
4.439999999999928,0.44,0.15445259402955203
4.4449999999999275,0.12,0.15667905090572237
4.449999999999927,0.12,0.1592346894568436
4.454999999999927,0.33,0.16148883597706362
4.459999999999927,0.33,0.16290193394138747
4.464999999999927,-0.03,0.16330230057216727
4.469999999999927,-0.03,0.1625194534930965
4.474999999999927,0.23,0.16037134891387295
4.479999999999927,0.23,0.15673272237163027
4.484999999999927,0.17,0.15170496951845525
4.4899999999999265,0.17,0.14577503741924164
4.494999999999926,0.02,0.13967211485873138
4.499999999999926,0.02,0.1341287221222676
4.504999999999926,0.1,0.12969720810547375
4.509999999999926,0.1,0.12686152310312895
4.514999999999926,0.17,0.12578762911925362
4.519999999999926,0.17,0.1264287247711772
4.524999999999926,0.17,0.12884478769521873
4.529999999999926,0.17,0.13313959900122327
4.5349999999999255,0.14,0.13923584005264159
4.539999999999925,0.14,0.14723268294161834
4.544999999999925,-0.0,0.15753149808760591
4.549999999999925,-0.0,0.17030843135017787
4.554999999999925,0.14,0.18533084094275368
4.559999999999925,0.14,0.20191783647580494
4.564999999999925,0.16,0.21925349144990894
4.569999999999925,0.16,0.2369362429822527
4.574999999999925,0.32,0.25501187088100563
4.579999999999925,0.32,0.2737635811682287
4.5849999999999245,0.19,0.293277496632077
4.589999999999924,0.19,0.3129774158594911
4.594999999999924,0.42,0.3321960988914138
4.599999999999924,0.42,0.350904942600421
4.604999999999924,0.51,0.36909348780413975
4.609999999999924,0.51,0.3864894880746861
4.614999999999924,1.04,0.4026709310184364
4.619999999999924,1.04,0.4167900789718409
4.624999999999924,0.2,0.42824327470415574
4.6299999999999235,0.2,0.4374880913207634
4.634999999999923,0.54,0.44521471331174733
4.639999999999923,0.54,0.4512405182696317
4.644999999999923,0.61,0.45488312337860437
4.649999999999923,0.61,0.4553771437135513
4.654999999999923,0.27,0.45210058981837653
4.659999999999923,0.27,0.4451714097800084
4.664999999999923,1.22,0.43562664293664144
4.669999999999923,1.22,0.424938730604768
4.6749999999999226,0.59,0.41443179414407305
4.6799999999999224,0.59,0.4054099896769847
4.684999999999922,0.25,0.398594362889365
4.689999999999922,0.25,0.39376582260323184
4.694999999999922,0.84,0.3901410763685642
4.699999999999922,0.84,0.3873486567676999
4.704999999999922,0.17,0.3857972620677109
4.709999999999922,0.17,0.38549152441247736
4.714999999999922,0.12,0.38578150061084726
4.719999999999922,0.12,0.3862879731108875
4.7249999999999215,0.32,0.3869864021818198
4.729999999999921,0.32,0.3880927802627544
4.734999999999921,0.38,0.39016121395166425
4.739999999999921,0.38,0.3936929183812007
4.744999999999921,0.83,0.39898300611507626
4.749999999999921,0.83,0.4058107151898373
4.754999999999921,0.4,0.4132899625522878
4.759999999999921,0.4,0.4207688151835908
4.764999999999921,0.51,0.42825384067478217
4.7699999999999205,0.51,0.4358355547829548
4.77499999999992,0.06,0.44299590033027386
4.77999999999992,0.06,0.4491687885157127
4.78499999999992,0.79,0.45441020392433606
4.78999999999992,0.79,0.45876747247950167
4.79499999999992,0.39,0.46234029613219624
4.79999999999992,0.39,0.46568397989821253
4.80499999999992,0.49,0.46950923113348536
4.80999999999992,0.49,0.4744142113739878
4.81499999999992,0.25,0.4806928307350305
4.8199999999999195,0.25,0.4880730767164036
4.824999999999919,0.49,0.4956249234265279
4.829999999999919,0.49,0.5020801422371713
4.834999999999919,0.63,0.5064102150844784
4.839999999999919,0.63,0.5083962761197565
4.844999999999919,0.67,0.508475332956134
4.849999999999919,0.67,0.50712503443342
4.854999999999919,0.35,0.5049338732721091
4.859999999999919,0.35,0.502596012391108
4.8649999999999185,0.7,0.5004867761022938
4.869999999999918,0.7,0.49901107012717727
4.874999999999918,1.4,0.49841409334308345
4.879999999999918,1.4,0.49816820246179294
4.884999999999918,0.52,0.4974750091703833
4.889999999999918,0.52,0.49605597338284585
4.894999999999918,0.13,0.4941154707778813
4.899999999999918,0.13,0.4916594839766765
4.904999999999918,0.58,0.4887217166163873
4.9099999999999175,0.58,0.48575189450230016
4.914999999999917,0.29,0.48309018393771236
4.919999999999917,0.29,0.48101878567340556
4.924999999999917,0.53,0.47989802811723303
4.929999999999917,0.53,0.48029857834753537
4.934999999999917,0.91,0.4829840103480805
4.939999999999917,0.91,0.4880365266110019
4.944999999999917,0.39,0.49463977252048136
4.949999999999917,0.39,0.5022227052852559
4.954999999999917,0.61,0.5106441031106531
4.9599999999999165,0.61,0.5188537327249496
4.964999999999916,0.2,0.5252876022811009
4.969999999999916,0.2,0.5296502604610568
4.974999999999916,0.52,0.532580304928402
4.979999999999916,0.52,0.5339542476757816
4.984999999999916,0.63,0.5334214837852033
4.989999999999916,0.63,0.5318245056221778
4.994999999999916,1.37,0.5306709426206948
4.999999999999916,1.37,0.5311182785349224
5.0049999999999155,1.84,0.5336112071683663
5.009999999999915,1.84,0.5379589711733085
5.014999999999915,0.74,0.5433593094473251
5.019999999999915,0.74,0.548888320060978
5.024999999999915,0.25,0.5539711808395745
5.029999999999915,0.25,0.5575982041256574
5.034999999999915,0.72,0.5582907800911816
5.039999999999915,0.72,0.555116353209051
5.044999999999915,0.24,0.5482773776344443
5.049999999999915,0.24,0.5382286256575457
5.0549999999999145,0.71,0.5254573139731472
5.059999999999914,0.71,0.5109190140948973
5.064999999999914,0.59,0.4955710791822608
5.069999999999914,0.59,0.4800216991210632
5.074999999999914,0.53,0.4644008122516132
5.079999999999914,0.53,0.448449097541909
5.084999999999914,0.52,0.43166781104518775
5.089999999999914,0.52,0.4134865389901415
5.094999999999914,0.23,0.393588141025704
5.0999999999999135,0.23,0.3725018412601609
5.104999999999913,0.28,0.35157341601958925
5.109999999999913,0.28,0.3319596878953555
5.114999999999913,0.31,0.3141617417899879
5.119999999999913,0.31,0.2984146177773433
5.124999999999913,0.3,0.2851368535908583
5.129999999999913,0.3,0.2747218763264116
5.134999999999913,0.15,0.2670090208601155
5.139999999999913,0.15,0.26137856985968116
5.1449999999999125,0.07,0.2572238213252529
5.149999999999912,0.07,0.254176183079585
5.154999999999912,0.17,0.2520648041427767
5.159999999999912,0.17,0.2508302410141098
5.164999999999912,0.6,0.2505057261761558
5.169999999999912,0.6,0.2514025679181687
5.174999999999912,0.28,0.25405869051273733
5.179999999999912,0.28,0.2587963586920073
5.184999999999912,0.18,0.26555500406381577
5.189999999999912,0.18,0.27384082833062934
5.1949999999999115,0.37,0.2828555627976557
5.199999999999911,0.37,0.29164453473137003
5.204999999999911,0.14,0.2992905857651066
5.209999999999911,0.14,0.30530399308800366
5.214999999999911,0.28,0.3098561545591892
5.219999999999911,0.28,0.31358463410820314
5.224999999999911,0.32,0.3173827141784291
5.229999999999911,0.32,0.32208539542250775
5.234999999999911,0.43,0.3281377166306123
5.2399999999999105,0.43,0.33534178414022203
5.24499999999991,0.42,0.34296660258764355
5.24999999999991,0.42,0.35065995559442464
5.25499999999991,0.32,0.35845251868372285
5.25999999999991,0.32,0.36615544267713385
5.26499999999991,0.29,0.3735167231434867
5.26999999999991,0.29,0.38036593970342103
5.27499999999991,0.43,0.38637542036632067
5.27999999999991,0.43,0.3909396935001443
5.2849999999999095,0.43,0.39368184673640255
5.289999999999909,0.43,0.3946953140267863
5.294999999999909,0.42,0.39427871071438164
5.299999999999909,0.42,0.3927897544817428
5.304999999999909,0.27,0.3904941296295876
5.309999999999909,0.27,0.3873448708724195
5.314999999999909,0.66,0.3831013824626085
5.319999999999909,0.66,0.37756309551267636
5.324999999999909,0.35,0.37048656418525583
5.329999999999909,0.35,0.3615012445588343
5.3349999999999085,0.51,0.35044936570788826
5.339999999999908,0.51,0.3374680752623802
5.344999999999908,0.09,0.3228170458422275
5.349999999999908,0.09,0.3066492163294776
5.354999999999908,0.37,0.2891112675151566
5.359999999999908,0.37,0.27072127984214595
5.364999999999908,0.31,0.25224051515293205
5.369999999999908,0.31,0.23465118235151394
5.374999999999908,0.16,0.2190149298155424
5.3799999999999075,0.16,0.20633796215716566
5.384999999999907,0.18,0.19739059618156657
5.389999999999907,0.18,0.19202352086631327
5.394999999999907,0.02,0.18925533845675083
5.399999999999907,0.02,0.1882827606127842
5.404999999999907,0.09,0.1887868034527333
5.409999999999907,0.09,0.19063098088308178
5.414999999999907,0.03,0.19354631539636166
5.419999999999907,0.03,0.1970850170528142
5.424999999999907,0.23,0.20115542137717407
5.4299999999999065,0.23,0.20566144493316693
5.434999999999906,0.41,0.21017298371676243
5.439999999999906,0.41,0.21433755672494442
5.444999999999906,0.39,0.21794341670179573
5.449999999999906,0.39,0.22091922173898942
5.454999999999906,0.11,0.223261449412963
5.459999999999906,0.11,0.22473956835128414
5.464999999999906,0.32,0.22506216861013575
5.469999999999906,0.32,0.2242069903366427
5.4749999999999055,0.4,0.22243474322173748
5.479999999999905,0.4,0.2201525368359144
5.484999999999905,0.03,0.21776377481924758
5.489999999999905,0.03,0.21571455272989568
5.494999999999905,0.03,0.21453459846013054
5.499999999999905,0.03,0.21440546786474113
5.504999999999905,0.17,0.2151595429997908
5.509999999999905,0.17,0.21668715111330583
5.514999999999905,0.24,0.21879579379344094
5.5199999999999045,0.24,0.2212553523884105
5.524999999999904,0.17,0.2238726602099102
5.529999999999904,0.17,0.226525236343579
5.534999999999904,0.3,0.2294530973294282
5.539999999999904,0.3,0.23308334056672037
5.544999999999904,0.4,0.23749090516115864
5.549999999999904,0.4,0.2423788621196992
5.554999999999904,0.36,0.24720857769003096
5.559999999999904,0.36,0.2516016158300777
5.564999999999904,0.1,0.25552676082210535
5.5699999999999035,0.1,0.25878399423163223
5.574999999999903,0.29,0.26116560132221744
5.579999999999903,0.29,0.2626608751759152
5.584999999999903,0.22,0.2632203992637423
5.589999999999903,0.22,0.2626222634857588
5.594999999999903,0.09,0.2606984451278835
5.599999999999903,0.09,0.2576937569239004
5.604999999999903,0.36,0.2542619700329567
5.609999999999903,0.36,0.2511181687606782
5.6149999999999025,0.3,0.2486786567104138
5.619999999999902,0.3,0.2470560158011006
5.624999999999902,0.38,0.24604468409960778
5.629999999999902,0.38,0.24523795069070772
5.634999999999902,0.19,0.2441495872418912
5.639999999999902,0.19,0.24234210792038552
5.644999999999902,0.29,0.23972055917868054
5.649999999999902,0.29,0.23628521680055742
5.654999999999902,0.1,0.23190963901441186
5.6599999999999016,0.1,0.22666686201079742
5.6649999999999014,0.23,0.22105313221868705
5.669999999999901,0.23,0.2160633674589939
5.674999999999901,0.21,0.21294527261851182
5.679999999999901,0.21,0.21272676825677736
5.684999999999901,0.21,0.21572645864136733
5.689999999999901,0.21,0.2213329203598131
5.694999999999901,0.19,0.22845653888881204
5.699999999999901,0.19,0.23600787064134995
5.704999999999901,0.14,0.2429600955886437
5.7099999999999005,0.14,0.24836132650324452
5.7149999999999,0.2,0.25171311375956995
5.7199999999999,0.2,0.25311669685545407
5.7249999999999,0.28,0.2530081874667944
5.7299999999999,0.28,0.2520862139957663
5.7349999999999,0.56,0.2513274972033863
5.7399999999999,0.56,0.25181488036351757
5.7449999999999,0.51,0.25411880939840353
5.7499999999999,0.51,0.2580890764551204
5.7549999999998995,0.04,0.26300971554530006
5.759999999999899,0.04,0.26756917871065977
5.764999999999899,0.26,0.2704820713754257
5.769999999999899,0.26,0.27109158799260347
5.774999999999899,-0.01,0.26918585584676663
5.779999999999899,-0.01,0.26465644680669237
5.784999999999899,0.27,0.2579521052255288
5.789999999999899,0.27,0.25053962453618467
5.794999999999899,0.26,0.24411711330612282
5.799999999999899,0.26,0.2396390069361926
5.8049999999998985,0.68,0.23732726492098252
5.809999999999898,0.68,0.2370115863960337
5.814999999999898,0.28,0.23810867766401586
5.819999999999898,0.28,0.2401464482764583
5.824999999999898,0.06,0.24257967723147442
5.829999999999898,0.06,0.24439841629714132
5.834999999999898,0.29,0.24496389147741204
5.839999999999898,0.29,0.24412898084144963
5.844999999999898,0.04,0.24184691463528477
5.8499999999998975,0.04,0.23821567973318966
5.854999999999897,0.55,0.23380109646581976
5.859999999999897,0.55,0.22925748404468205
5.864999999999897,0.0,0.22501431006960937
5.869999999999897,0.0,0.22212577373392234
5.874999999999897,0.22,0.22183818514655443
5.879999999999897,0.22,0.2243581646941997
5.884999999999897,0.53,0.2290448620897161
5.889999999999897,0.53,0.2354496291834438
5.8949999999998965,0.02,0.2433044733020362
5.899999999999896,0.02,0.25243144146884644
5.904999999999896,0.96,0.2629992684911387
5.909999999999896,0.96,0.2751811002741106
5.914999999999896,0.06,0.288551499938987
5.919999999999896,0.06,0.3021460617234016
5.924999999999896,0.16,0.3154650374629537
5.929999999999896,0.16,0.32855224208355455
5.934999999999896,0.63,0.34110885866358076
5.939999999999896,0.63,0.3527226399748447
5.9449999999998955,0.22,0.3633660403511512
5.949999999999895,0.22,0.3724969686119162
5.954999999999895,0.52,0.37907244218698366
5.959999999999895,0.52,0.3828505705032372
5.964999999999895,0.59,0.38430171519430845
5.969999999999895,0.59,0.3838674351285442
5.974999999999895,0.6,0.382038899780811
5.979999999999895,0.6,0.37923352735726934
5.984999999999895,0.2,0.3751220507565774
5.9899999999998945,0.2,0.3689204505974935
5.994999999999894,1.13,0.36063923490099176
5.999999999999894,1.13,0.3512414833730958
6.004999999999894,0.14,0.3417843333293741
6.009999999999894,0.14,0.3326604658366097
6.014999999999894,0.27,0.32353206580788435
6.019999999999894,0.27,0.3144838528055116
6.024999999999894,0.48,0.3068373642548496
6.029999999999894,0.48,0.30252202491313407
6.034999999999894,0.07,0.30282125898586987
6.0399999999998935,0.07,0.3080879525476268
6.044999999999893,0.36,0.3179146810532182
6.049999999999893,0.36,0.33162808083600365
6.054999999999893,0.19,0.3483702555735815
6.059999999999893,0.19,0.36712377020831094
6.064999999999893,0.54,0.3871729641666444
6.069999999999893,0.54,0.4079772177606969
6.074999999999893,0.33,0.42930242262839724
6.079999999999893,0.33,0.451621901569905
6.0849999999998925,0.37,0.47575127647138976
6.089999999999892,0.37,0.5023508790739768
6.094999999999892,0.66,0.5317454147989367
6.099999999999892,0.66,0.5640312390462883
6.104999999999892,0.5,0.5987631297975842
6.109999999999892,0.5,0.6345066662908749
6.114999999999892,0.89,0.6692990599619114
6.119999999999892,0.89,0.7010517705689253
6.124999999999892,0.58,0.7280165401903067
6.1299999999998915,0.58,0.7496420311838684
6.134999999999891,0.68,0.7661073690113472
6.139999999999891,0.68,0.7780267580316691
6.144999999999891,1.12,0.7865037300163399
6.149999999999891,1.12,0.7930405049557571
6.154999999999891,1.42,0.7993328826061544
6.159999999999891,1.42,0.8065352313038479
6.164999999999891,1.24,0.814509428534808
6.169999999999891,1.24,0.8215150659575094
6.174999999999891,0.63,0.8251681265906307
6.1799999999998905,0.63,0.8233469785526374
6.18499999999989,0.31,0.8152922504710602
6.18999999999989,0.31,0.8016837648273043
6.19499999999989,0.09,0.7829647899790884
6.19999999999989,0.09,0.7591608113831567
6.20499999999989,1.06,0.7313396003028725
6.20999999999989,1.06,0.7018231934838483
6.21499999999989,0.85,0.6733654282504501
6.21999999999989,0.85,0.6478596247969015
6.2249999999998895,1.36,0.6255362468844171
6.229999999999889,1.36,0.6060511713228182
6.234999999999889,0.52,0.5883622493792598
6.239999999999889,0.52,0.5704287911903878
6.244999999999889,0.19,0.5500776368867449
6.249999999999889,0.19,0.5265565137474236
6.254999999999889,0.6,0.5012516553799972
6.259999999999889,0.6,0.4757112975325512
6.264999999999889,0.39,0.4508502351596122
6.2699999999998886,0.39,0.427140264490893
6.2749999999998884,0.37,0.40492733195750563
6.279999999999888,0.37,0.3843868551949921
6.284999999999888,0.09,0.3651818977133115
6.289999999999888,0.09,0.3476586615920376
6.294999999999888,0.79,0.332835139347844
6.299999999999888,0.79,0.32159960155731293
6.304999999999888,0.59,0.31434950183427757
6.309999999999888,0.59,0.31114144074974565
6.314999999999888,0.09,0.31185430166200345
6.3199999999998875,0.09,0.3161708775367067
6.324999999999887,0.16,0.32402139558375803
6.329999999999887,0.16,0.3354398020376515
6.334999999999887,0.03,0.34985016887070775
6.339999999999887,0.03,0.36654517889686306
6.344999999999887,0.14,0.38552255161719107
6.349999999999887,0.14,0.4068875601222996
6.354999999999887,0.57,0.43063738952325586
6.359999999999887,0.57,0.4570844610730981
6.3649999999998865,0.46,0.48631005628649093
6.369999999999886,0.46,0.5168679820979751
6.374999999999886,0.99,0.5468958655728889
6.379999999999886,0.99,0.5762394653172263
6.384999999999886,0.61,0.6052728992254858
6.389999999999886,0.61,0.6337797414387473
6.394999999999886,0.82,0.6607707543205316
6.399999999999886,0.82,0.6837390763847612
6.404999999999886,1.93,0.699832019209519
6.409999999999886,1.93,0.7069724647274952
6.4149999999998855,0.22,0.7047310272414922
6.419999999999885,0.22,0.694409166037399
6.424999999999885,0.99,0.6787339686240692
6.429999999999885,0.99,0.6610225967482966
6.434999999999885,0.65,0.6428037751374743
6.439999999999885,0.65,0.6240623073521228
6.444999999999885,1.18,0.605010441033181
6.449999999999885,1.18,0.5858265170770939
6.454999999999885,2.11,0.5652485417702986
6.4599999999998845,2.11,0.5419176552100811
6.464999999999884,0.44,0.5161003392355455
6.469999999999884,0.44,0.4886669231055932
6.474999999999884,0.25,0.46009472865542667
6.479999999999884,0.25,0.43072943887737075
6.484999999999884,0.27,0.40084105686422816
6.489999999999884,0.27,0.3713917436198643
6.494999999999884,0.87,0.34477359149298487
6.499999999999884,0.87,0.32373291771661855
6.5049999999998835,0.13,0.3094175931484684
6.509999999999883,0.13,0.3014973107473231
6.514999999999883,0.26,0.29869960061585815
6.519999999999883,0.26,0.29893328533956764
6.524999999999883,0.18,0.30029592739810773
6.529999999999883,0.18,0.30211574311952494
6.534999999999883,0.21,0.30494731741195524
6.539999999999883,0.21,0.30974796604903826
6.544999999999883,0.38,0.3171051465247932
6.549999999999883,0.38,0.3269773727393985
6.5549999999998825,0.32,0.339174147517184
6.559999999999882,0.32,0.3537710190710138
6.564999999999882,0.59,0.37076700881848085
6.569999999999882,0.59,0.38956075330464013
6.574999999999882,0.31,0.4089954014063841
6.579999999999882,0.31,0.4278603654723042
6.584999999999882,0.16,0.44561265900747626
6.589999999999882,0.16,0.46277737821026776
6.594999999999882,0.62,0.4804638711603753
6.5999999999998815,0.62,0.5001239743526461
6.604999999999881,0.7,0.5229880353625737
6.609999999999881,0.7,0.549399687148117
6.614999999999881,0.25,0.5792314113927608
6.619999999999881,0.25,0.6118862209545634
6.624999999999881,0.8,0.6464195835071608
6.629999999999881,0.8,0.6819391964595004
6.634999999999881,0.54,0.7174003556278664
6.639999999999881,0.54,0.752257735438274
6.644999999999881,0.38,0.7862815770629723
6.6499999999998805,0.38,0.8183055611449684
6.65499999999988,1.08,0.8473268386505057
6.65999999999988,1.08,0.8740007811713865
6.66499999999988,1.29,0.8993756389728274
6.66999999999988,1.29,0.9230633309422811
6.67499999999988,2.21,0.9434436859866419
6.67999999999988,2.21,0.9590309234014702
6.68499999999988,0.5,0.96868943828304
6.68999999999988,0.5,0.9716740562868249
6.6949999999998795,1.16,0.9672116496684217
6.699999999999879,1.16,0.954978443568871
6.704999999999879,1.65,0.939635110434588
6.709999999999879,1.65,0.9319852998299668
6.714999999999879,0.63,0.9369256721647882
6.719999999999879,0.63,0.9493638682444209
6.724999999999879,2.65,0.9640719571635263
6.729999999999879,2.65,0.9794902241918756
6.734999999999879,0.54,0.9952544590312769
6.7399999999998785,0.54,1.01071924573195
6.744999999999878,0.36,1.0240232669499516
6.749999999999878,0.36,1.0328911034762072
6.754999999999878,2.69,1.037224777106273
6.759999999999878,2.69,1.040108004238791
6.764999999999878,0.83,1.0489028999596812
6.769999999999878,0.83,1.0709284987501397
6.774999999999878,1.36,1.1031588653225943
6.779999999999878,1.36,1.1356716547489005
6.784999999999878,1.64,1.1604456572020012
6.7899999999998775,1.64,1.1739824575764266
6.794999999999877,1.16,1.1775015106104025
6.799999999999877,1.16,1.1731694541425841
6.804999999999877,1.35,1.162329911284898
6.809999999999877,1.35,1.146290844336646
6.814999999999877,0.42,1.126149771280757
6.819999999999877,0.42,1.1022239968597558
6.824999999999877,0.62,1.0765163927339967
6.829999999999877,0.62,1.0600577774398208
6.8349999999998765,1.14,1.0652735027053002
6.839999999999876,1.14,1.0879399586460163
6.844999999999876,2.23,1.1177153825393795
6.849999999999876,2.23,1.1515308647747984
6.854999999999876,0.77,1.188236261019599
6.859999999999876,0.77,1.2278133984473218
6.864999999999876,2.16,1.2703847894481686
6.869999999999876,2.16,1.3174260846772872
6.874999999999876,0.68,1.3714762085183156
6.8799999999998755,0.68,1.4326386823966037
6.884999999999875,0.95,1.4974826418452445
6.889999999999875,0.95,1.562063016087584
6.894999999999875,1.67,1.62717910165566
6.899999999999875,1.67,1.6985522326841107
6.904999999999875,4.09,1.784697050648945
6.909999999999875,4.09,1.8810276653576614
6.914999999999875,1.89,1.9427140839114796
6.919999999999875,1.89,1.914965457722502
6.924999999999875,2.48,1.7952951430967368
6.9299999999998745,2.48,1.6401236410726894
6.934999999999874,4.09,1.4935955099785592
6.939999999999874,4.09,1.3681793924212566
6.944999999999874,4.09,1.2624130230442492
6.949999999999874,4.09,1.170730396687223
6.954999999999874,4.09,1.0864192548069755
6.959999999999874,4.09,1.0011278975279612
6.964999999999874,4.09,0.905451411994476
6.969999999999874,4.09,0.7900479010612768
6.9749999999998735,0.24,0.6518333091228252
6.979999999999873,0.24,0.48834594920994134
6.984999999999873,-0.05,0.30079372535105925
6.989999999999873,-0.05,0.12528137576842682
6.994999999999873,-0.06,0.015972316942288657
6.999999999999873,-0.06,-0.024408636832602436
7.004999999999873,-0.06,-0.02657253027299209
7.009999999999873,-0.06,-0.007528429443075113
7.014999999999873,-0.06,0.027935662306372663
7.019999999999873,-0.06,0.0761461205817611
7.0249999999998725,-0.06,0.13392045504573716
7.029999999999872,-0.06,0.19931902131034568
7.034999999999872,-0.06,0.27283793709562626
7.039999999999872,-0.06,0.360378750593957
7.044999999999872,-0.05,0.46870338951917945
7.049999999999872,-0.05,0.5987502967911691
7.054999999999872,0.54,0.7432021654152785
7.059999999999872,0.54,0.8922361161648782
7.064999999999872,1.34,1.042103261362389
7.0699999999998715,1.34,1.1941488446057913
7.074999999999871,2.29,1.3507823926364568
7.079999999999871,2.29,1.513604362109219
7.084999999999871,0.45,1.6829065303944182
7.089999999999871,0.45,1.8574434689994785
7.094999999999871,3.01,2.03456670086737
7.099999999999871,3.01,2.210912891773758
7.104999999999871,2.34,2.378078363021163
7.109999999999871,2.34,2.504467469164387
7.1149999999998705,2.94,2.5578169735001253
7.11999999999987,2.94,2.55642070156158
7.12499999999987,1.18,2.5390243239950743
7.12999999999987,1.18,2.5219871765415736
7.13499999999987,3.39,2.5036022370358677
7.13999999999987,3.39,2.4818816722747847
7.14499999999987,3.3,2.4565402088020725
7.14999999999987,3.3,2.418715822493794
7.15499999999987,4.09,2.345228198814916
7.15999999999987,4.09,2.217184793978052
7.1649999999998695,4.09,2.0605186643354356
7.169999999999869,4.09,1.9369317428089954
7.174999999999869,2.23,1.8827636648526573
7.179999999999869,2.23,1.8555920503307592
7.184999999999869,-0.06,1.7696077114653355
7.189999999999869,-0.06,1.605145471026953
7.194999999999869,-0.03,1.406690529904254
7.199999999999869,-0.03,1.2112545148225975
7.204999999999869,-0.05,1.0250701698473554
7.2099999999998685,-0.05,0.8477129775342274
7.214999999999868,-0.04,0.6784242974928119
7.219999999999868,-0.04,0.516676264957493
7.224999999999868,0.03,0.36348061806481446
7.229999999999868,0.03,0.22383071156036635
7.234999999999868,-0.04,0.1076297092794483
7.239999999999868,-0.04,0.026138599503842674
7.244999999999868,-0.06,-0.016897394498315958
7.249999999999868,-0.06,-0.03165763602602776
7.2549999999998676,-0.05,-0.035558462686540275
7.2599999999998674,-0.05,-0.03789708055227567
7.264999999999867,-0.04,-0.04007296762270892
7.269999999999867,-0.04,-0.042051681207840946
7.274999999999867,-0.04,-0.04380028715480219
7.279999999999867,-0.04,-0.0452907762143233
7.284999999999867,-0.04,-0.046500298275547663
7.289999999999867,-0.04,-0.04741972133278904
7.294999999999867,-0.05,-0.04806098753452307
7.299999999999867,-0.05,-0.04849306202356986
7.3049999999998665,-0.06,-0.048867347938227966
7.309999999999866,-0.06,-0.04930275851921144
7.314999999999866,-0.05,-0.049811516442679
7.319999999999866,-0.05,-0.05037314703768764
7.324999999999866,-0.05,-0.05080992903201341
7.329999999999866,-0.05,-0.05039516044294714
7.334999999999866,-0.05,-0.04796557684072065
7.339999999999866,-0.05,-0.04236314178559588
7.344999999999866,-0.05,-0.032954994506333324
7.3499999999998655,-0.05,-0.020072699004004577
7.354999999999865,-0.06,-0.004452109669989687
7.359999999999865,-0.06,0.013207303828407626
7.364999999999865,-0.06,0.03211609364411633
7.369999999999865,-0.06,0.05185555028108888
7.374999999999865,-0.04,0.07223590897839338
7.379999999999865,-0.04,0.0932098232157177
7.384999999999865,1.85,0.1151135875337248
7.389999999999865,1.85,0.13851924030185273
7.394999999999865,0.71,0.16385537753050783
7.3999999999998645,0.71,0.19153888260871835
7.404999999999864,0.17,0.22159355396164288
7.409999999999864,0.17,0.2535452911993058
7.414999999999864,1.92,0.2866360815726684
7.419999999999864,1.92,0.31944454463114913
7.424999999999864,0.24,0.35022149109371215
7.429999999999864,0.24,0.37721284856369913
7.434999999999864,0.44,0.39910418550787813
7.439999999999864,0.44,0.41564239450274826
7.4449999999998635,1.27,0.42769636464671196
7.449999999999863,1.27,0.43681803627575805
7.454999999999863,0.54,0.444750433991996
7.459999999999863,0.54,0.452817487974876
7.464999999999863,0.7,0.46132029354008597
7.469999999999863,0.7,0.4700764105283194
7.474999999999863,1.82,0.4783034362105911
7.479999999999863,1.82,0.4851006688282741
7.484999999999863,0.4,0.49063469706094615
7.4899999999998625,0.4,0.49587919022831406
7.494999999999862,0.34,0.5014864827245409
7.499999999999862,0.34,0.5077029677792998
7.504999999999862,0.62,0.5152591402871162
7.509999999999862,0.62,0.5250518699983727
7.514999999999862,0.37,0.5377264016408806
7.519999999999862,0.37,0.5540283968457735
7.524999999999862,0.12,0.5750433255576292
7.529999999999862,0.12,0.6013056855086965
7.534999999999862,1.29,0.6303504155572626
7.5399999999998615,1.29,0.6507133964841495
7.544999999999861,0.36,0.6464571197023664
7.549999999999861,0.36,0.6141712293094104
7.554999999999861,0.93,0.5686037301871566
7.559999999999861,0.93,0.5260633943683066
7.564999999999861,2.38,0.49249883785344095
7.569999999999861,2.38,0.46663086184052227
7.574999999999861,2.53,0.44482158827206514
7.579999999999861,2.53,0.4226429868322596
7.5849999999998605,2.86,0.3955679783416188
7.58999999999986,2.86,0.36112198031438364
7.59499999999986,1.74,0.31997550785885925
7.59999999999986,1.74,0.2740912505141952
7.60499999999986,0.21,0.2245833059143373
7.60999999999986,0.21,0.1719649309653677
7.61499999999986,-0.05,0.11754063452166681
7.61999999999986,-0.05,0.06825882723441073
7.62499999999986,-0.03,0.033749301160377
7.62999999999986,-0.03,0.014141910756577053
7.6349999999998595,-0.04,0.0018666975773047802
7.639999999999859,-0.04,-0.008054901447501525
7.644999999999859,-0.04,-0.016617775567883557
7.649999999999859,-0.04,-0.023994514046960205
7.654999999999859,-0.05,-0.030307268818699277
7.659999999999859,-0.05,-0.035640421635693774
7.664999999999859,-0.05,-0.04002105400592385
7.669999999999859,-0.05,-0.043400859917513405
7.674999999999859,-0.04,-0.045712509401707284
7.6799999999998585,-0.04,-0.04705049560107007
7.684999999999858,-0.05,-0.04783116339794814
7.689999999999858,-0.05,-0.04832419017562832
7.694999999999858,-0.05,-0.04838308941130258
7.699999999999858,-0.05,-0.04786530780011542
7.704999999999858,-0.05,-0.0467088381569341
7.709999999999858,-0.05,-0.044861486777411815
7.714999999999858,-0.05,-0.04180919555694414
7.719999999999858,-0.05,-0.03487949955834753
7.7249999999998575,-0.06,-0.019680838165530026
7.729999999999857,-0.06,0.005926362682203944
7.734999999999857,-0.05,0.03911666145919659
7.739999999999857,-0.05,0.075101666344028
7.744999999999857,-0.05,0.1106713564221564
7.749999999999857,-0.05,0.14543675621581814
7.754999999999857,0.97,0.18003452202018286
7.759999999999857,0.97,0.2140508364839796
7.764999999999857,1.68,0.24682568989108528
7.769999999999857,1.68,0.2785071501807896
7.7749999999998565,1.24,0.3095683203760768
7.779999999999856,1.24,0.34005322294111645
7.784999999999856,0.62,0.37035878344372325
7.789999999999856,0.62,0.40133099053150306
7.794999999999856,0.32,0.4329038515322605
7.799999999999856,0.32,0.4616295626600356
7.804999999999856,0.63,0.47948319267504247
7.809999999999856,0.63,0.4781408846261625
7.814999999999856,0.93,0.4566441624572924
7.8199999999998555,0.93,0.4220700580816179
7.824999999999855,0.38,0.38282416581132017
7.829999999999855,0.38,0.3438844379592944
7.834999999999855,0.56,0.3065094384744558
7.839999999999855,0.56,0.27083986548104055
7.844999999999855,-0.03,0.23656638577246422
7.849999999999855,-0.03,0.203010506906029
7.854999999999855,-0.05,0.16947277408007594
7.859999999999855,-0.05,0.1356430494877272
7.8649999999998546,-0.02,0.10198496798096156
7.8699999999998544,-0.02,0.06969619790204072
7.874999999999854,-0.03,0.04052531928273147
7.879999999999854,-0.03,0.01579001372500366
7.884999999999854,-0.05,-0.004220293793543967
7.889999999999854,-0.05,-0.019753839724306214
7.894999999999854,-0.05,-0.031128776727834612
7.899999999999854,-0.05,-0.03866606594400116
7.904999999999854,-0.05,-0.04295139712565523
7.909999999999854,-0.05,-0.04497505338850875
7.9149999999998535,-0.05,-0.04592472535835001
7.919999999999853,-0.05,-0.04665859351575866
7.924999999999853,-0.05,-0.04733958362712733
7.929999999999853,-0.05,-0.04793038428424384
7.934999999999853,-0.04,-0.04837793051327917
7.939999999999853,-0.04,-0.04865543790671436
7.944999999999853,-0.05,-0.048796148615911916
7.949999999999853,-0.05,-0.04885811822616667
7.954999999999853,-0.05,-0.04889373573298634
7.9599999999998525,-0.05,-0.04894171667673998
7.964999999999852,-0.05,-0.04901324873440588
7.969999999999852,-0.05,-0.04910997387265808
7.974999999999852,-0.05,-0.049230706366945265
7.979999999999852,-0.05,-0.049370776879908713
7.984999999999852,-0.05,-0.04952168228184416
7.989999999999852,-0.05,-0.04967131171347708
7.994999999999852,-0.05,-0.04980510167549338
7.999999999999852,-0.05,-0.04990856512617778
8.004999999999852,-0.05,-0.049971742344233044
8.009999999999852,-0.05,-0.04999623559755408
8.014999999999853,-0.05,-0.05
8.019999999999854,-0.05,-0.05
8.024999999999855,-0.05,-0.05
8.029999999999855,-0.05,-0.05000000000000003
8.034999999999856,-0.05,-0.05000000000000001
8.039999999999857,-0.05,-0.05
8.044999999999858,-0.05,-0.05
8.049999999999859,-0.05,-0.05000000000000001
8.05499999999986,-0.05,-0.05000000000000001
8.05999999999986,-0.05,-0.05000000000000001
8.064999999999861,-0.05,-0.049999999999999996
8.069999999999862,-0.05,-0.04999999999999998
8.074999999999863,-0.05,-0.049999999999999996
8.079999999999863,-0.05,-0.05
8.084999999999864,-0.05,-0.05000000000000001
8.089999999999865,-0.05,-0.05000000000000001
8.094999999999866,-0.05,-0.05000000000000001
8.099999999999866,-0.05,-0.05000000000000001
8.104999999999867,-0.05,-0.05000000000000001
8.109999999999868,-0.05,-0.05000000000000001
8.114999999999869,-0.05,-0.05000000000000001
8.11999999999987,-0.05,-0.05000000000000001
8.12499999999987,-0.05,-0.05000000000000001
8.129999999999871,-0.05,-0.05000000000000001
8.134999999999872,-0.05,-0.05000000000000001
8.139999999999873,-0.05,-0.05000000000000001
8.144999999999873,-0.05,-0.05000000000000001
8.149999999999874,-0.05,-0.05000000000000001
8.154999999999875,-0.05,-0.05000000000000001
8.159999999999876,-0.05,-0.05000000000000001
8.164999999999877,-0.05,-0.05000000000000001
8.169999999999877,-0.05,-0.05000000000000001
8.174999999999878,-0.05,-0.05000000000000001
8.179999999999879,-0.05,-0.05000000000000001
8.18499999999988,-0.05,-0.05000000000000001
8.18999999999988,-0.05,-0.05000000000000001
8.194999999999881,-0.05,-0.05000000000000001
8.199999999999882,-0.05,-0.05000000000000001
8.204999999999883,-0.05,-0.05000000000000001
8.209999999999884,-0.05,-0.05
8.214999999999884,-0.05,-0.05
8.219999999999885,-0.05,-0.050000000000000024
8.224999999999886,-0.05,-0.05
8.229999999999887,-0.05,-0.05000000000000001
8.234999999999888,-0.05,-0.049999999999999996
8.239999999999888,-0.05,-0.049999999999999996
8.244999999999889,-0.05,-0.050000000000000024
8.24999999999989,-0.05,-0.049999999999999996
8.25499999999989,-0.05,-0.05
8.259999999999891,-0.05,-0.049999999999999996
8.264999999999892,-0.05,-0.050000000000000024
8.269999999999893,-0.05,-0.049999999999999975
8.274999999999894,-0.05,-0.05000168606360782
8.279999999999895,-0.05,-0.05001274069049906
8.284999999999895,-0.05,-0.04990888712406486
8.289999999999896,-0.05,-0.048962207348833026
8.294999999999897,-0.05,-0.0458567143106177
8.299999999999898,-0.05,-0.039091826879795996
8.304999999999898,-0.05,-0.02652230062372351
8.3099999999999,-0.05,-0.004525722764623989
8.3149999999999,-0.05,0.030405122012842064
8.3199999999999,-0.05,0.07857318325395933
8.324999999999902,-0.05,0.1382936691337021
8.329999999999902,-0.05,0.2068556620240857
8.334999999999903,-0.05,0.2790008033061858
8.339999999999904,-0.05,0.3486326877794544
8.344999999999905,-0.06,0.41258434837635916
8.349999999999905,-0.06,0.47087727320846473
8.354999999999906,1.16,0.5248732243963328
8.359999999999907,1.16,0.5759454690721346
8.364999999999908,1.32,0.6257859905912044
8.369999999999909,1.32,0.6763991207978922
8.37499999999991,1.12,0.7299083238922386
8.37999999999991,1.12,0.7877187949801742
8.384999999999911,1.58,0.848715658442204
8.389999999999912,1.58,0.9084694199033789
8.394999999999913,1.05,0.9602378222872908
8.399999999999913,1.05,0.997489075026254
8.404999999999914,0.5,1.0168306042660962
8.409999999999915,0.5,1.018828085293456
8.414999999999916,1.19,1.0067769501653008
8.419999999999916,1.19,0.9851223670376859
8.424999999999917,0.95,0.9578322590317526
8.429999999999918,0.95,0.9269678704640921
8.434999999999919,0.89,0.8927680099635777
8.43999999999992,0.89,0.8552429915499978
8.44499999999992,1.05,0.8149581272501989
8.449999999999921,1.05,0.7734952080764058
8.454999999999922,1.01,0.7326496966721269
8.459999999999923,1.01,0.692962395694945
8.464999999999923,0.36,0.6536512038672471
8.469999999999924,0.36,0.6134741090512937
8.474999999999925,0.21,0.5719054181877001
8.479999999999926,0.21,0.5292259214770654
8.484999999999927,1.03,0.4862354631326293
8.489999999999927,1.03,0.4438457462280291
8.494999999999928,0.13,0.40246526253083403
8.499999999999929,0.13,0.3624813076449136
8.50499999999993,0.24,0.32496160899907434
8.50999999999993,0.24,0.29128201644159907
8.514999999999931,0.47,0.26272602079951
8.519999999999932,0.47,0.23999335690764975
8.524999999999933,0.12,0.22270075302377693
8.529999999999934,0.12,0.20974424058705163
8.534999999999934,0.03,0.19984698224860942
8.539999999999935,0.03,0.19191874125242436
8.544999999999936,0.17,0.18549582698849373
8.549999999999937,0.17,0.18005243128182977
8.554999999999938,0.17,0.17501572198498486
8.559999999999938,0.17,0.16993735237160904
8.564999999999939,0.13,0.16444348529384273
8.56999999999994,0.13,0.15861052458920738
8.57499999999994,0.07,0.15303650418253273
8.579999999999941,0.07,0.1483422090584147
8.584999999999942,0.28,0.14489403870991338
8.589999999999943,0.28,0.14282985219613292
8.594999999999944,0.4,0.14181265299887577
8.599999999999945,0.4,0.1412556587683392
8.604999999999945,0.03,0.14073073964041666
8.609999999999946,0.03,0.13980898263272198
8.614999999999947,-0.02,0.1382345168597422
8.619999999999948,-0.02,0.13591367455896883
8.624999999999948,0.13,0.1328203781108556
8.62999999999995,0.13,0.12922687698850116
8.63499999999995,0.1,0.12557787466464096
8.63999999999995,0.1,0.12235257774074147
8.644999999999952,0.12,0.12007422910715604
8.649999999999952,0.12,0.11917666897693638
8.654999999999953,0.22,0.12004928031499158
8.659999999999954,0.22,0.12303673519242002
8.664999999999955,0.1,0.12810762752680466
8.669999999999956,0.1,0.1350672700072777
8.674999999999956,0.05,0.1435849052642514
8.679999999999957,0.05,0.15337895379494124
8.684999999999958,0.11,0.1644843308846271
8.689999999999959,0.11,0.1769638058622855
8.69499999999996,0.25,0.19088412026303236
8.69999999999996,0.25,0.20636744307229343
8.704999999999961,0.18,0.22325732674488202
8.709999999999962,0.18,0.24090304700722878
8.714999999999963,0.09,0.25852375380564196
8.719999999999963,0.09,0.27546281669757555
8.724999999999964,0.33,0.2912828373695901
8.729999999999965,0.33,0.30585850909236595
8.734999999999966,0.48,0.319153081966023
8.739999999999966,0.48,0.33122170382157373
8.744999999999967,0.45,0.34226335766298727
8.749999999999968,0.45,0.35255720563659043
8.754999999999969,0.42,0.36235320328077825
8.75999999999997,0.42,0.37168215273784844
8.76499999999997,0.55,0.38031348151892935
8.769999999999971,0.55,0.3877580899038212
8.774999999999972,0.21,0.3932345131263444
8.779999999999973,0.21,0.3958714378698494
8.784999999999973,0.3,0.39518614094970544
8.789999999999974,0.3,0.39120247018374066
8.794999999999975,0.42,0.3845221258981577
8.799999999999976,0.42,0.37626606390537737
8.804999999999977,0.4,0.36747110332013555
8.809999999999977,0.4,0.3587311378633377
8.814999999999978,0.46,0.35023075683814164
8.819999999999979,0.46,0.34208270449672074
8.82499999999998,0.4,0.3343977626226885
8.82999999999998,0.4,0.3272998264767139
8.834999999999981,0.35,0.32089192500396885
8.839999999999982,0.35,0.31526651231970476
8.844999999999983,0.18,0.31026382476561054
8.849999999999984,0.18,0.30544933218477005
8.854999999999984,0.15,0.30061743495078547
8.859999999999985,0.15,0.2955817507600573
8.864999999999986,0.38,0.29025716448762623
8.869999999999987,0.38,0.28497844286627
8.874999999999988,0.15,0.2801679282543097
8.879999999999988,0.15,0.2761942239123719
8.88499999999999,0.24,0.27346688873880054
8.88999999999999,0.24,0.2724887582904539
8.89499999999999,0.33,0.27348580871532324
8.899999999999991,0.33,0.276056123620649
8.904999999999992,0.59,0.279493375361534
8.909999999999993,0.59,0.28315697211119206
8.914999999999994,0.19,0.2865592646349602
8.919999999999995,0.19,0.2896126785458363
8.924999999999995,0.11,0.29266126843528606
8.929999999999996,0.11,0.2961300746434114
8.934999999999997,0.34,0.30030772063571753
8.939999999999998,0.34,0.3049319265846006
8.944999999999999,0.29,0.3092219276073988
8.95,0.29,0.31249725839523596
8.955,0.44,0.3145897361522577
8.96,0.44,0.31550318553426704
8.965000000000002,0.14,0.3152282880129868
8.970000000000002,0.14,0.3139281324139156
8.975000000000003,0.31,0.3119078182632576
8.980000000000004,0.31,0.3095963258739988
8.985000000000005,0.55,0.3071154377077662
8.990000000000006,0.55,0.3042251634085297
8.995000000000006,0.48,0.3009423722483318
9.000000000000007,0.48,0.29780508973855496
9.005000000000008,0.21,0.29557002979734576
9.010000000000009,0.21,0.29486882001556936
9.01500000000001,0.18,0.29593223885263725
9.02000000000001,0.18,0.2985922787576421
9.025000000000011,0.08,0.302442704184434
9.030000000000012,0.08,0.3068059596650529
9.035000000000013,0.28,0.3108885941624574
9.040000000000013,0.28,0.31418229942990206
9.045000000000014,0.39,0.3169996601100642
9.050000000000015,0.39,0.320479007572398
9.055000000000016,0.14,0.3257080282953954
9.060000000000016,0.14,0.33319354130968276
9.065000000000017,0.52,0.34271378421800824
9.070000000000018,0.52,0.35327552031791576
9.075000000000019,0.64,0.3636484268628655
9.08000000000002,0.64,0.3732868749137896
9.08500000000002,0.39,0.3820725408553901
9.090000000000021,0.39,0.38939400315267486
9.095000000000022,0.32,0.39450050006971626
9.100000000000023,0.32,0.39696366652581133
9.105000000000024,0.15,0.3969126830218295
9.110000000000024,0.15,0.3951454852739631
9.115000000000025,0.64,0.39247789716797876
9.120000000000026,0.64,0.389046024914674
9.125000000000027,0.47,0.3845935723985904
9.130000000000027,0.47,0.37923965107315505
9.135000000000028,0.12,0.37354940603305925
9.140000000000029,0.12,0.3678029336281875
9.14500000000003,0.73,0.3619780639775486
9.15000000000003,0.73,0.3565165905381139
9.155000000000031,0.2,0.3515953993713727
9.160000000000032,0.2,0.3466838069967328
9.165000000000033,0.3,0.34141335231876796
9.170000000000034,0.3,0.3360342077300578
9.175000000000034,0.64,0.3312546150959574
9.180000000000035,0.64,0.3279969944665205
9.185000000000036,0.06,0.3270593647505295
9.190000000000037,0.06,0.3285079473410242
9.195000000000038,0.29,0.3314300685678483
9.200000000000038,0.29,0.33437227534840513
9.20500000000004,0.12,0.3360363958152755
9.21000000000004,0.12,0.33567955575706326
9.21500000000004,0.67,0.33342441043151794
9.220000000000041,0.67,0.32963012815037895
9.225000000000042,0.2,0.32424084562903555
9.230000000000043,0.2,0.317448171291394
9.235000000000044,0.48,0.30993822906791124
9.240000000000045,0.48,0.30228529265783155
9.245000000000045,0.51,0.29477518997012697
9.250000000000046,0.51,0.28764825186107384
9.255000000000047,0.39,0.28091442405315986
9.260000000000048,0.39,0.27448218031621824
9.265000000000049,0.03,0.26840682945839234
9.27000000000005,0.03,0.26264221406316535
9.27500000000005,0.08,0.2570374675643246
9.28000000000005,0.08,0.2515419389818053
9.285000000000052,0.15,0.24630006057349632
9.290000000000052,0.15,0.24117403392724876
9.295000000000053,1.24,0.23566690950818683
9.300000000000054,1.24,0.2297596657664761
9.305000000000055,0.21,0.22427056398926215
9.310000000000056,0.21,0.2200907933092324
9.315000000000056,0.34,0.21760082904513114
9.320000000000057,0.34,0.21679911977953822
9.325000000000058,0.24,0.21710080889417738
9.330000000000059,0.24,0.2172358064516147
9.33500000000006,0.36,0.2157718299017751
9.34000000000006,0.36,0.21186531889129637
9.345000000000061,0.28,0.2057353700709931
9.350000000000062,0.28,0.19824964948932
9.355000000000063,0.09,0.1905015170925264
9.360000000000063,0.09,0.1832755618733812
9.365000000000064,0.1,0.1768067915640212
9.370000000000065,0.1,0.17079974143301976
9.375000000000066,0.07,0.16476656529969205
9.380000000000067,0.07,0.15860429722580982
9.385000000000067,0.13,0.15267365314581044
9.390000000000068,0.13,0.14770957491288125
9.395000000000069,0.01,0.14436828604103824
9.40000000000007,0.01,0.1429658827375992
9.40500000000007,0.25,0.14374125696548773
9.410000000000071,0.25,0.14704891614950263
9.415000000000072,0.3,0.15287389180174635
9.420000000000073,0.3,0.16047419444978914
9.425000000000074,0.13,0.1688222229615789
9.430000000000074,0.13,0.17719665782432284
9.435000000000075,0.06,0.18539710815350466
9.440000000000076,0.06,0.1936427414336875
9.445000000000077,0.13,0.20228554979802896
9.450000000000077,0.13,0.21156017565292695
9.455000000000078,0.35,0.22147332047063698
9.460000000000079,0.35,0.23144921286698897
9.46500000000008,0.14,0.24057614004456268
9.47000000000008,0.14,0.24809880538944415
9.475000000000081,0.44,0.2537556447174757
9.480000000000082,0.44,0.25765889723072366
9.485000000000083,0.08,0.2599207408733552
9.490000000000084,0.08,0.2608574818906752
9.495000000000084,0.34,0.26077745361672783
9.500000000000085,0.34,0.2596577373436798
9.505000000000086,0.6,0.2574855370378309
9.510000000000087,0.6,0.25450945886894166
9.515000000000088,0.38,0.25111520959836053
9.520000000000088,0.38,0.24762014458373102
9.52500000000009,0.02,0.2441404324618088
9.53000000000009,0.02,0.24052603377941034
9.53500000000009,0.07,0.2364288334316609
9.540000000000092,0.07,0.23181259502278476
9.545000000000092,0.18,0.22708757074746624
9.550000000000093,0.18,0.22252681333449295
9.555000000000094,0.34,0.2180679961018941
9.560000000000095,0.34,0.21391657458544047
9.565000000000095,0.09,0.21077117553403257
9.570000000000096,0.09,0.20909811651847815
9.575000000000097,0.25,0.20878825768400075
9.580000000000098,0.25,0.20942809994154335
9.585000000000099,0.25,0.21028132205564662
9.5900000000001,0.25,0.21044100571477142
9.5950000000001,0.24,0.2093029239118009
9.600000000000101,0.24,0.2072056799913783
9.605000000000102,0.31,0.20521543369420933
9.610000000000102,0.31,0.20408098290526866
9.615000000000103,0.17,0.20419871771711592
9.620000000000104,0.17,0.20606575370690272
9.625000000000105,0.15,0.20998505843991871
9.630000000000106,0.15,0.2156838735587728
9.635000000000106,0.12,0.22248205397687584
9.640000000000107,0.12,0.22998845764149162
9.645000000000108,0.15,0.23866921450314338
9.650000000000109,0.15,0.24967532904442266
9.65500000000011,0.07,0.26404791931123905
9.66000000000011,0.07,0.2821761193761431
9.665000000000111,0.6,0.3038625133140102
9.670000000000112,0.6,0.32898882638117505
9.675000000000113,0.19,0.3572583019621381
9.680000000000113,0.19,0.3873703400266967
9.685000000000114,0.52,0.41750461438191344
9.690000000000115,0.52,0.44592812822027506
9.695000000000116,0.33,0.47145791250355557
9.700000000000117,0.33,0.4937739821051532
9.705000000000117,1.22,0.5130910676105991
9.710000000000118,1.22,0.5295698347993455
9.715000000000119,0.76,0.5434702292040031
9.72000000000012,0.76,0.5555869271802852
9.72500000000012,0.58,0.5669228618149676
9.730000000000121,0.58,0.5785638574519788
9.735000000000122,1.05,0.5912678430765008
9.740000000000123,1.05,0.6045136143351947
9.745000000000124,0.51,0.6164513268942564
9.750000000000124,0.51,0.6255007237549348
9.755000000000125,0.32,0.6314296915381025
9.760000000000126,0.32,0.6348344382121559
9.765000000000127,0.7,0.6366403824650244
9.770000000000127,0.7,0.6382746005290417
9.775000000000128,0.44,0.6412727135211292
9.780000000000129,0.44,0.6468287579916324
9.78500000000013,0.79,0.6556402539250924
9.79000000000013,0.79,0.6680478189608672
9.795000000000131,0.95,0.6838439899307691
9.800000000000132,0.95,0.702534805507724
9.805000000000133,0.26,0.7234624754746918
9.810000000000134,0.26,0.7452949343495285
9.815000000000135,0.67,0.7662350001686945
9.820000000000135,0.67,0.7848081739100058
9.825000000000136,0.82,0.8003833498444737
9.830000000000137,0.82,0.81284190107901
9.835000000000138,0.87,0.8224225813338768
9.840000000000138,0.87,0.8296087980447177
9.84500000000014,1.07,0.834764655161041
9.85000000000014,1.07,0.8380494511325522
9.85500000000014,0.9,0.8398075860546158
9.860000000000142,0.9,0.8409126305732953
9.865000000000142,2.15,0.8420548126253494
9.870000000000143,2.15,0.8431610485217262
9.875000000000144,0.86,0.843485794649811
9.880000000000145,0.86,0.8423220367791809
9.885000000000145,0.87,0.8395694969943296
9.890000000000146,0.87,0.8355776525221501
9.895000000000147,0.33,0.8309691565456382
9.900000000000148,0.33,0.8264126422775246
9.905000000000149,0.9,0.8224210600664837
9.91000000000015,0.9,0.8198499494491952
9.91500000000015,0.47,0.8193870378330101
9.920000000000151,0.47,0.8208715820044173
9.925000000000152,1.09,0.8235984943770259
9.930000000000152,1.09,0.8261937385397841
9.935000000000153,1.67,0.827041724804807
9.940000000000154,1.67,0.8248974437035999
9.945000000000155,1.63,0.8195098784836798
9.950000000000156,1.63,0.8119169825501567
9.955000000000156,0.76,0.8034951525042708
9.960000000000157,0.76,0.7952744310218015
9.965000000000158,0.84,0.7877909963077169
9.970000000000159,0.84,0.7810022689196969
9.97500000000016,1.12,0.7744772512748349
9.98000000000016,1.12,0.7677800825519595
9.985000000000161,0.07,0.7606292920075791
9.990000000000162,0.07,0.7529794248177606
9.995000000000163,0.4,0.7450784186580973
10.000000000000163,0.4,0.7361296421437886
10.005000000000164,0.24,0.7242607755144036
10.010000000000165,0.24,0.7083787954661704
10.015000000000166,0.99,0.6888112705308461
10.020000000000167,0.99,0.666657781253174
10.025000000000167,0.74,0.64314992274852
10.030000000000168,0.74,0.6195796116716008
10.035000000000169,0.78,0.5973000451946047
10.04000000000017,0.78,0.5772707969918225
10.04500000000017,0.85,0.5597245968903428
10.050000000000171,0.85,0.5442302341435775
10.055000000000172,0.38,0.5295671438107585
10.060000000000173,0.38,0.5140751680201828
10.065000000000174,0.24,0.4965899896928635
10.070000000000174,0.24,0.4771171824922881
10.075000000000175,0.12,0.4567944247888807
10.080000000000176,0.12,0.43714501246198045
10.085000000000177,0.26,0.4196273625114207
10.090000000000177,0.26,0.40505988040244295
10.095000000000178,0.67,0.39345234853483574
10.100000000000179,0.67,0.3847954447025358
10.10500000000018,0.36,0.3790454889025457
10.11000000000018,0.36,0.375898395454206
10.115000000000181,0.47,0.37468460951510746
10.120000000000182,0.47,0.3741333838916493
10.125000000000183,0.19,0.37261936406722923
10.130000000000184,0.19,0.36894304401803335
10.135000000000185,0.62,0.36297536574078737
10.140000000000185,0.62,0.3554219574930269
10.145000000000186,0.5,0.3472780662388738
10.150000000000187,0.5,0.33942611885049967
10.155000000000188,0.14,0.33250953219704116
10.160000000000188,0.14,0.32658240734533506
10.16500000000019,0.25,0.3212758971898158
10.17000000000019,0.25,0.3160117112382884
10.17500000000019,0.32,0.30998812601324344
10.180000000000192,0.32,0.3027372597719004
10.185000000000192,0.03,0.2944013631796984
10.190000000000193,0.03,0.28547766686920073
10.195000000000194,0.32,0.27661514984716984
10.200000000000195,0.32,0.2686657352439962
10.205000000000195,0.7,0.2627851297877764
10.210000000000196,0.7,0.2601470341328267
10.215000000000197,0.33,0.2610468111740778
10.220000000000198,0.33,0.2649023245538764
10.225000000000199,0.13,0.2708203420239287
10.2300000000002,0.13,0.2777847741886057
10.2350000000002,0.18,0.28525041565025916
10.240000000000201,0.18,0.29346294878977386
10.245000000000202,0.18,0.30311106831423984
10.250000000000203,0.18,0.314750000778221
10.255000000000203,0.28,0.3284112302774844
10.260000000000204,0.28,0.34371906936981494
10.265000000000205,0.24,0.3601901930690846
10.270000000000206,0.24,0.3773890884582831
10.275000000000206,0.84,0.39497128798543
10.280000000000207,0.84,0.41248438267694504
10.285000000000208,1.14,0.42929207302755673
10.290000000000209,1.14,0.4445771358121827
10.29500000000021,0.17,0.4576393298431003
10.30000000000021,0.17,0.4680432148412242
10.305000000000211,0.97,0.4756694892910699
10.310000000000212,0.97,0.48046651311532496
10.315000000000213,0.53,0.4821853807236676
10.320000000000213,0.53,0.48021881066553856
10.325000000000214,0.59,0.47384302847400406
10.330000000000215,0.59,0.46288223531647993
10.335000000000216,0.53,0.4484320278865193
10.340000000000217,0.53,0.43347668754091306
10.345000000000217,0.1,0.4213758574256569
10.350000000000218,0.1,0.4131755810170201
10.355000000000219,0.29,0.4094116602758333
10.36000000000022,0.29,0.4154366549525162
10.36500000000022,0.03,0.43653913970080144
10.370000000000221,0.03,0.4702134539462308
10.375000000000222,0.48,0.511720753547315
10.380000000000223,0.48,0.5592163789296763
10.385000000000224,2.62,0.6111090448837865
10.390000000000224,2.62,0.6637721884078384
10.395000000000225,1.7,0.7127574253371096
10.400000000000226,1.7,0.755841905893594
10.405000000000227,0.6,0.7933302531702557
10.410000000000228,0.6,0.8260509634369365
10.415000000000228,2.96,0.8546762600034892
10.420000000000229,2.96,0.8800821946596039
10.42500000000023,1.37,0.9035249918045771
10.43000000000023,1.37,0.9237367816603017
10.435000000000231,3.75,0.9366075896635545
10.440000000000232,3.75,0.9375967595306497
10.445000000000233,1.49,0.9220841343523446
10.450000000000234,1.49,0.8899751793935119
10.455000000000235,1.08,0.8486168332984021
10.460000000000235,1.08,0.8042410332479267
10.465000000000236,0.3,0.756751765432597
10.470000000000237,0.3,0.7039608825090194
10.475000000000238,0.33,0.6447373986575279
10.480000000000238,0.33,0.581564024897967
10.48500000000024,0.31,0.520754634309043
10.49000000000024,0.31,0.4674678327812007
10.49500000000024,0.11,0.42407433259793437
10.500000000000242,0.11,0.39113415854061984
10.505000000000242,0.54,0.36685119308218134
10.510000000000243,0.54,0.34855834330962965
10.515000000000244,0.02,0.33512802183090834
10.520000000000245,0.02,0.3271243727424404
10.525000000000245,0.22,0.3250178418431928
10.530000000000246,0.22,0.3287208883349861
10.535000000000247,1.04,0.3371244598199033
10.540000000000248,1.04,0.3485669226720034
10.545000000000249,0.79,0.36194176221768615
10.55000000000025,0.79,0.37601426371974067
10.55500000000025,0.15,0.38937949182168
10.560000000000251,0.15,0.4007676886565056
10.565000000000252,0.34,0.40958266321628856
10.570000000000253,0.34,0.4163087517126571
10.575000000000253,0.23,0.42170588497434575
10.580000000000254,0.23,0.42573727429990343
10.585000000000255,0.76,0.42760771872477
10.590000000000256,0.76,0.4271113220929303
10.595000000000256,0.91,0.4249236173772361
10.600000000000257,0.91,0.42130644039378434
10.605000000000258,0.4,0.4162325447879866
10.610000000000259,0.4,0.41092010340486956
10.61500000000026,0.23,0.40682325354291127
10.62000000000026,0.23,0.4037952116286574
10.625000000000261,0.16,0.4004585707967327
10.630000000000262,0.16,0.3953341118579481
10.635000000000263,0.98,0.38796613868873114
10.640000000000263,0.98,0.37895449756370453
10.645000000000264,3.97,0.3694814404026686
10.650000000000265,3.97,0.36117157444165227
10.655000000000266,0.18,0.3557028960410944
10.660000000000267,0.18,0.3539619704236317
10.665000000000267,0.2,0.3554024355568058
10.670000000000268,0.2,0.3586686778635003
10.675000000000269,0.69,0.3624350866213853
10.68000000000027,0.69,0.3658496978501758
10.68500000000027,0.25,0.3684092883834297
10.690000000000271,0.25,0.36967400134948997
10.695000000000272,0.3,0.3696975016504267
10.700000000000273,0.3,0.36871446950674763
10.705000000000274,1.02,0.36700320790536595
10.710000000000274,1.02,0.36490370651247533
10.715000000000275,0.44,0.3626012822889638
10.720000000000276,0.44,0.36050194406999686
10.725000000000277,0.41,0.3590051029333481
10.730000000000278,0.41,0.3584056510888951
10.735000000000278,0.1,0.3591461458137534
10.740000000000279,0.1,0.36153245810400825
10.74500000000028,1.02,0.3658422543810666
10.75000000000028,1.02,0.3722548107284175
10.755000000000281,0.2,0.3800972872755782
10.760000000000282,0.2,0.3883324736868198
10.765000000000283,0.27,0.39648496594565164
10.770000000000284,0.27,0.40419051272978485
10.775000000000285,0.35,0.4112665464256465
10.780000000000285,0.35,0.418344659045187
10.785000000000286,0.5,0.426217665284686
10.790000000000287,0.5,0.4348017844342068
10.795000000000288,0.83,0.44312043960988773
10.800000000000288,0.83,0.4499771192648821
10.80500000000029,0.46,0.45458481505628273
10.81000000000029,0.46,0.45697127599752496
10.81500000000029,0.72,0.45769415692710586
10.820000000000292,0.72,0.45727244103626036
10.825000000000292,0.32,0.45557347351524924
10.830000000000293,0.32,0.45221164807506053
10.835000000000294,0.21,0.447507064583227
10.840000000000295,0.21,0.44210770677865463
10.845000000000296,0.77,0.4367072244389976
10.850000000000296,0.77,0.4324482682026139
10.855000000000297,0.19,0.42998575344346146
10.860000000000298,0.19,0.4286729791559053
10.865000000000299,0.32,0.42792852748914934
10.8700000000003,0.32,0.4281854435011139
10.8750000000003,1.52,0.43002099579537745
10.880000000000301,1.52,0.43395545834458127
10.885000000000302,0.99,0.44062367691028026
10.890000000000303,0.99,0.45038672572933475
10.895000000000303,0.33,0.4626208403292571
10.900000000000304,0.33,0.47579053657843245
10.905000000000305,0.38,0.4886871112475006
10.910000000000306,0.38,0.5005828936749256
10.915000000000306,0.73,0.5111918627222084
10.920000000000307,0.73,0.5198935458573133
10.925000000000308,0.14,0.5250466637598505
10.930000000000309,0.14,0.5259994214338084
10.93500000000031,0.66,0.524349377464525
10.94000000000031,0.66,0.5224990812834783
10.945000000000311,1.2,0.5222961787129913
10.950000000000312,1.2,0.524467455977267
10.955000000000313,0.8,0.5287897813696388
10.960000000000313,0.8,0.5346832859385162
10.965000000000314,0.36,0.540975910177103
10.970000000000315,0.36,0.5460832330909069
10.975000000000316,0.39,0.5492444315755342
10.980000000000317,0.39,0.550734389001756
10.985000000000317,0.13,0.5513888388367297
10.990000000000318,0.13,0.5524052635258141
10.995000000000319,0.77,0.5548323984534398
11.00000000000032,0.77,0.5597158361587338
11.00500000000032,0.62,0.568451301832659
11.010000000000321,0.62,0.5813023896969998
11.015000000000322,2.78,0.5968688349877753
11.020000000000323,2.78,0.61396048570098
11.025000000000324,0.66,0.6320783496102551
11.030000000000324,0.66,0.6506649922179185
11.035000000000325,0.34,0.6687217002420816
11.040000000000326,0.34,0.6853224915297963
11.045000000000327,0.71,0.7003399475419402
11.050000000000328,0.71,0.7143620079815279
11.055000000000328,1.28,0.7281073022137287
11.06000000000033,1.28,0.740383678667615
11.06500000000033,1.94,0.7472668285648474
11.07000000000033,1.94,0.7455011682680421
11.075000000000331,0.44,0.7377331761472512
11.080000000000332,0.44,0.7296822468409274
11.085000000000333,1.01,0.7239884705801792
11.090000000000334,1.01,0.7206452343233921
11.095000000000335,0.02,0.718321848305697
11.100000000000335,0.02,0.7159360087594174
11.105000000000336,1.99,0.7129125451868301
11.110000000000337,1.99,0.7076677910409691
11.115000000000338,1.83,0.6991580670927444
11.120000000000339,1.83,0.6879271164664523
11.12500000000034,0.39,0.6750415081867381
11.13000000000034,0.39,0.6613617026536414
11.13500000000034,0.76,0.646722590948618
11.140000000000342,0.76,0.6304736233265938
11.145000000000342,1.95,0.6123386083841473
11.150000000000343,1.95,0.5932356105972233
11.155000000000344,2.07,0.5761543384271636
11.160000000000345,2.07,0.5626441646850548
11.165000000000346,0.85,0.5512682499039085
11.170000000000346,0.85,0.5409999387402294
11.175000000000347,0.11,0.5317926427217917
11.180000000000348,0.11,0.5230924920545831
11.185000000000349,0.49,0.5140107798331329
11.19000000000035,0.49,0.5040959465682776
11.19500000000035,0.4,0.4939037904051395
11.200000000000351,0.4,0.48532318068697566
11.205000000000352,0.46,0.4803567776838427
11.210000000000353,0.46,0.4790105106436172
11.215000000000353,0.34,0.4795723036769787
11.220000000000354,0.34,0.48041293374160643
11.225000000000355,0.55,0.4807233573380166
11.230000000000356,0.55,0.48067840037873577
11.235000000000356,0.7,0.4813260194947969
11.240000000000357,0.7,0.48436164681410726
11.245000000000358,0.31,0.4908349679311248
11.250000000000359,0.31,0.5001732375611437
11.25500000000036,0.97,0.5114316404718431
11.26000000000036,0.97,0.5236265390353789
11.265000000000361,0.27,0.5355356471196732
11.270000000000362,0.27,0.5459901695946328
11.275000000000363,1.69,0.5543722937648375
11.280000000000364,1.69,0.5607421827442436
11.285000000000364,0.24,0.5661347545547819
11.290000000000365,0.24,0.5739613505882534
11.295000000000366,0.68,0.5882848665160109
11.300000000000367,0.68,0.6114140666605768
11.305000000000367,0.87,0.6433733216687816
11.310000000000368,0.87,0.6826507287055231
11.315000000000369,1.88,0.7280283480722329
11.32000000000037,1.88,0.778921926635615
11.32500000000037,0.38,0.8350344537104787
11.330000000000371,0.38,0.8952797246882326
11.335000000000372,0.43,0.9570653832075958
11.340000000000373,0.43,1.0153060475167317
11.345000000000374,0.72,1.0639697298257587
11.350000000000374,0.72,1.0994302247530592
11.355000000000375,1.44,1.1239914761220156
11.360000000000376,1.44,1.1446156369002185
11.365000000000377,1.67,1.1671741259711301
11.370000000000378,1.67,1.193258721803362
11.375000000000378,2.56,1.2202668173032492
11.38000000000038,2.56,1.2441018717355017
11.38500000000038,2.6,1.2618498917318055
11.39000000000038,2.6,1.2733694075262132
11.395000000000381,1.85,1.278446087676079
11.400000000000382,1.85,1.2760037523266083
11.405000000000383,1.28,1.266136365323696
11.410000000000384,1.28,1.2488651958702428
11.415000000000385,1.08,1.2230804976908491
11.420000000000385,1.08,1.187521189586104
11.425000000000386,1.42,1.1445266593913215
11.430000000000387,1.42,1.0989597729260407
11.435000000000388,0.63,1.0549951419312675
11.440000000000389,0.63,1.0142307997755995
11.44500000000039,0.72,0.9761137452332953
11.45000000000039,0.72,0.9398930754587406
11.45500000000039,1.47,0.9055460771814285
11.460000000000392,1.47,0.8742194561072196
11.465000000000392,0.6,0.8474444501432684
11.470000000000393,0.6,0.8265059552598054
11.475000000000394,0.93,0.8121215168691561
11.480000000000395,0.93,0.8046934398591445
11.485000000000396,0.41,0.8041998379877261
11.490000000000396,0.41,0.8100709385773894
11.495000000000397,0.94,0.8214726984014672
11.500000000000398,0.94,0.8368559918059587
11.505000000000399,0.4,0.8539404088632087
11.5100000000004,0.4,0.8710683561626132
11.5150000000004,0.62,0.8880767277795563
11.520000000000401,0.62,0.9047334169830347
11.525000000000402,1.29,0.9202443600580182
11.530000000000403,1.29,0.9334832763180897
11.535000000000403,1.19,0.9432345634052817
11.540000000000404,1.19,0.9491249917356754
11.545000000000405,1.05,0.9517256943790892
11.550000000000406,1.05,0.9515845466880412
11.555000000000407,1.08,0.9480704389878769
11.560000000000407,1.08,0.939672758969381
11.565000000000408,1.06,0.9253234495540801
11.570000000000409,1.06,0.9049159834247295
11.57500000000041,0.16,0.8793212097402003
11.58000000000041,0.16,0.8497639166792297
11.585000000000411,0.82,0.8172191605506497
11.590000000000412,0.82,0.782144755992001
11.595000000000413,0.35,0.7454661456874467
11.600000000000414,0.35,0.7090829945734821
11.605000000000414,0.9,0.6744054146075239
11.610000000000415,0.9,0.6421068907281797
11.615000000000416,1.49,0.6126474107955482
11.620000000000417,1.49,0.5867762649745472
11.625000000000417,0.41,0.5654141654588987
11.630000000000418,0.41,0.5488723661217648
11.635000000000419,0.52,0.5367299416134049
11.64000000000042,0.52,0.5282116453979865
11.64500000000042,0.39,0.5223603276945463
11.650000000000421,0.39,0.5186115674960761
11.655000000000422,0.16,0.517689521682037
11.660000000000423,0.16,0.5205315479217983
11.665000000000424,0.85,0.5270011475415728
11.670000000000424,0.85,0.5362244087776367
11.675000000000425,0.43,0.5472118288548398
11.680000000000426,0.43,0.5583131123776546
11.685000000000427,0.67,0.567673654812941
11.690000000000428,0.67,0.5749064555575231
11.695000000000428,0.48,0.5805149813385205
11.70000000000043,0.48,0.5843853601414659
11.70500000000043,0.8,0.5860542134691034
11.71000000000043,0.8,0.5848943789175073
11.715000000000432,0.81,0.5804712305587868
11.720000000000432,0.81,0.5733032369152589
11.725000000000433,0.66,0.5643480011123934
11.730000000000434,0.66,0.5542367952848094
11.735000000000435,0.31,0.543473335225151
11.740000000000435,0.31,0.5328099878636492
11.745000000000436,0.36,0.5225772730589175
11.750000000000437,0.36,0.5122159917898597
11.755000000000438,1.16,0.5011721879086549
11.760000000000439,1.16,0.48921917788092273
11.76500000000044,0.47,0.4763214755206666
11.77000000000044,0.47,0.463084388843273
11.775000000000441,0.24,0.45082594962263006
11.780000000000442,0.24,0.44105545196792706
11.785000000000442,1.08,0.43460847907921735
11.790000000000443,1.08,0.4314987413301806
11.795000000000444,0.34,0.43092880351959606
11.800000000000445,0.34,0.43139435073999816
11.805000000000446,0.7,0.4314179070467598
11.810000000000446,0.7,0.43006468070698206
11.815000000000447,0.22,0.4272265692226465
11.820000000000448,0.22,0.4229876605180948
11.825000000000449,0.32,0.417540430136256
11.83000000000045,0.32,0.4112717781596956
11.83500000000045,0.45,0.4043838808015166
11.840000000000451,0.45,0.39733572883621326
11.845000000000452,0.63,0.39112183984163335
11.850000000000453,0.63,0.3869494765733363
11.855000000000453,0.43,0.38575657970116245
11.860000000000454,0.43,0.38724460859242427
11.865000000000455,0.2,0.390036210032972
11.870000000000456,0.2,0.3926451958704851
11.875000000000457,0.27,0.394079674922631
11.880000000000457,0.27,0.39411282415559534
11.885000000000458,0.24,0.3927028152040071
11.890000000000459,0.24,0.38959893585579053
11.89500000000046,0.46,0.38497188490328205
11.90000000000046,0.46,0.379391432596087
11.905000000000461,0.58,0.3736849082735108
11.910000000000462,0.58,0.36918939363883746
11.915000000000463,0.84,0.3668787913897822
11.920000000000464,0.84,0.3665166011410466
11.925000000000464,0.18,0.36693355847941017
11.930000000000465,0.18,0.36683850569097654
11.935000000000466,0.24,0.36531277352521135
11.940000000000467,0.24,0.3617670611850906
11.945000000000467,0.59,0.3561389849601185
11.950000000000468,0.59,0.34881769332496504
11.955000000000469,0.06,0.34053839361150395
11.96000000000047,0.06,0.3328249498963533
11.96500000000047,0.21,0.32772912770860513
11.970000000000471,0.21,0.32680699586335027
11.975000000000472,0.63,0.33068029317285685
11.980000000000473,0.63,0.33947196406837166
11.985000000000474,0.17,0.3526813183565436
11.990000000000475,0.17,0.3695753103263073
11.995000000000475,0.33,0.3895830920352974
12.000000000000476,0.33,0.41258587540754765
12.005000000000477,0.28,0.43902082093018113
12.010000000000478,0.28,0.46899714081554505
12.015000000000478,0.37,0.5019801645361824
12.02000000000048,0.37,0.5372653360706875
12.02500000000048,0.9,0.5739740254656144
12.03000000000048,0.9,0.6108683239923551
12.035000000000482,0.46,0.6464498199161525
12.040000000000482,0.46,0.6783748696436764
12.045000000000483,0.76,0.7045640580892113
12.050000000000484,0.76,0.7251615222347256
12.055000000000485,0.97,0.7407345503407261
12.060000000000485,0.97,0.7509093021675238
12.065000000000486,1.25,0.7556733543080926
12.070000000000487,1.25,0.7553758951512696
12.075000000000488,0.83,0.7508189655978326
12.080000000000489,0.83,0.7437529954965058
12.08500000000049,1.42,0.7357961289087344
12.09000000000049,1.42,0.7273615430782747
12.095000000000491,0.3,0.7182945816301646
12.100000000000492,0.3,0.7084562746049083
12.105000000000492,0.61,0.6967404078730073
12.110000000000493,0.61,0.6817373880576196
12.115000000000494,1.51,0.6638454124600771
12.120000000000495,1.51,0.6453556800776747
12.125000000000496,0.62,0.6291046137396721
12.130000000000496,0.62,0.6177111925532518
12.135000000000497,0.38,0.6125731816607823
12.140000000000498,0.38,0.6134848860057438
12.145000000000499,0.77,0.6191210079832341
12.1500000000005,0.77,0.6275776447351806
12.1550000000005,0.5,0.6366771029535666
12.160000000000501,0.5,0.6444744341454142
12.165000000000502,0.87,0.6498709850455183
12.170000000000503,0.87,0.6523487169902117
12.175000000000503,0.44,0.6519192447162685
12.180000000000504,0.44,0.6490222739386605
12.185000000000505,1.06,0.6445538022649974
12.190000000000506,1.06,0.6399455343814308
12.195000000000507,0.88,0.6359852539062384
12.200000000000507,0.88,0.6321213117079976
12.205000000000508,0.35,0.6275315486503573
12.210000000000509,0.35,0.6221716776064604
12.21500000000051,0.75,0.6167500000133043
12.22000000000051,0.75,0.6116631072494595
12.225000000000511,0.45,0.6067985916403779
12.230000000000512,0.45,0.6028729104779098
12.235000000000513,0.3,0.6011509665705995
12.240000000000514,0.3,0.6017475452907942
12.245000000000514,0.6,0.604275136825499
12.250000000000515,0.6,0.6094091506083837
12.255000000000516,1.1,0.6180459893093949
12.260000000000517,1.1,0.6298991777113234
12.265000000000517,0.19,0.6434814526932124
12.270000000000518,0.19,0.6568362898027253
12.275000000000519,1.22,0.6688371449343665
12.28000000000052,1.22,0.6799963002307864
12.28500000000052,0.45,0.6916297067067331
12.290000000000521,0.45,0.7042275610744834
12.295000000000522,1.14,0.716710152405393
12.300000000000523,1.14,0.7273447832722142
12.305000000000524,0.13,0.7350321366035071
12.310000000000525,0.13,0.7393753994607271
12.315000000000525,0.94,0.7409950019768843
12.320000000000526,0.94,0.7417891003853251
12.325000000000527,0.76,0.7439448843583143
12.330000000000528,0.76,0.7490371621509073
12.335000000000528,0.34,0.7574638532191953
12.34000000000053,0.34,0.7687982293478565
12.34500000000053,0.98,0.7830370522748362
12.35000000000053,0.98,0.7997379655774441
12.355000000000532,1.87,0.8176066257968329
12.360000000000532,1.87,0.8366819321255186
12.365000000000533,0.4,0.8575585919027374
12.370000000000534,0.4,0.879117979749923
12.375000000000535,0.63,0.8998720493312033
12.380000000000535,0.63,0.9201487025003159
12.385000000000536,1.37,0.9418649158511061
12.390000000000537,1.37,0.9666887588421366
12.395000000000538,1.56,0.9945998138421924
12.400000000000539,1.56,1.024847252986786
12.40500000000054,0.34,1.0566268980145763
12.41000000000054,0.34,1.0889454168201789
12.415000000000541,0.81,1.120952679671052
12.420000000000542,0.81,1.1506179278878204
12.425000000000542,1.5,1.1753469154883291
12.430000000000543,1.5,1.1945213769987693
12.435000000000544,0.68,1.2084156571569757
12.440000000000545,0.68,1.2167802971677213
12.445000000000546,1.82,1.220235044750184
12.450000000000546,1.82,1.2202517757698594
12.455000000000547,1.33,1.2188912700527024
12.460000000000548,1.33,1.217462523582369
12.465000000000549,2.2,1.2153255610698273
12.47000000000055,2.2,1.2113285603512862
12.47500000000055,1.35,1.2043337490878032
12.480000000000551,1.35,1.1936046096154966
12.485000000000552,0.76,1.178676236496379
12.490000000000553,0.76,1.159695470881493
12.495000000000553,1.36,1.1388344234878103
12.500000000000554,1.36,1.117906648204771
12.505000000000555,1.2,1.097092475854441
12.510000000000556,1.2,1.0771330841752782
12.515000000000557,0.63,1.0596619015800417
12.520000000000557,0.63,1.0459054142923212
12.525000000000558,0.99,1.0360044195199885
12.530000000000559,0.99,1.0288737020206435
12.53500000000056,0.43,1.0226730594246873
12.54000000000056,0.43,1.0154866706311918
12.545000000000561,1.46,1.0066501159951249
12.550000000000562,1.46,0.997091474217785
12.555000000000563,0.97,0.9877103908954296
12.560000000000564,0.97,0.9792380863253594
12.565000000000564,0.4,0.9730154394000321
12.570000000000565,0.4,0.9700266405794514
12.575000000000566,1.21,0.9695622666187514
12.580000000000567,1.21,0.9694270448584822
12.585000000000568,1.23,0.9670099345868347
12.590000000000568,1.23,0.9601219911575033
12.595000000000569,0.79,0.947578401143796
12.60000000000057,0.79,0.9286565440206603
12.60500000000057,0.55,0.9034004238340246
12.610000000000571,0.55,0.8732216146897317
12.615000000000572,1.19,0.8402762760559531
12.620000000000573,1.19,0.8062514525303488
12.625000000000574,0.95,0.7715843573075905
12.630000000000575,0.95,0.736905664821014
12.635000000000575,1.09,0.7036362889721441
12.640000000000576,1.09,0.672418888566286
12.645000000000577,0.38,0.6430190396934443
12.650000000000578,0.38,0.6150543177574695
12.655000000000578,0.21,0.5879245492716391
12.66000000000058,0.21,0.5610283734894651
12.66500000000058,0.35,0.5338026912761606
12.67000000000058,0.35,0.5059747995859495
12.675000000000582,0.48,0.47812813114733643
12.680000000000582,0.48,0.4511465291805102
12.685000000000583,1.12,0.42637182744566454
12.690000000000584,1.12,0.4051109684369555
12.695000000000585,0.5,0.3876172199685129
12.700000000000585,0.5,0.37344232630366675
12.705000000000586,0.13,0.3615671858627363
12.710000000000587,0.13,0.3504934768079342
12.715000000000588,0.41,0.33864947328108297
12.720000000000589,0.41,0.3248386068734444
12.72500000000059,0.48,0.30874498276566364
12.73000000000059,0.48,0.2905320774482956
12.735000000000591,0.31,0.27088806814651667
12.740000000000592,0.31,0.25159424098298216
12.745000000000593,0.01,0.23539079060336127
12.750000000000593,0.01,0.22469361274770425
12.755000000000594,0.19,0.22002681452466408
12.760000000000595,0.19,0.21937317359322805
12.765000000000596,0.14,0.2197471737933903
12.770000000000596,0.14,0.21949942984910092
12.775000000000597,0.11,0.21833004272417025
12.780000000000598,0.11,0.21669799752609417
12.785000000000599,1.28,0.2157189486251625
12.7900000000006,1.28,0.21672830321967892
12.7950000000006,1.42,0.22034823126956052
12.800000000000601,1.42,0.22616071385555506
12.805000000000602,0.65,0.2332873800680184
12.810000000000603,0.65,0.24079246892767545
12.815000000000603,0.19,0.24790626404986496
12.820000000000604,0.19,0.254042431275228
12.825000000000605,0.11,0.25884038215330263
12.830000000000606,0.11,0.26108452887619615
12.835000000000607,0.33,0.25873537684056097
12.840000000000607,0.33,0.25109114946577343
12.845000000000608,0.33,0.2398858444118953
12.850000000000609,0.33,0.22800531933684343
12.85500000000061,0.38,0.21780268164973624
12.86000000000061,0.38,0.21038136343076955
12.865000000000611,0.02,0.20590394128687647
12.870000000000612,0.02,0.20430220950832811
12.875000000000613,-0.01,0.20516828411771626
12.880000000000614,-0.01,0.20723757339019364
12.885000000000614,0.17,0.20880031171337185
12.890000000000615,0.17,0.20874579607843746
12.895000000000616,0.22,0.20697847228278118
12.900000000000617,0.22,0.20438661286034682
12.905000000000618,0.16,0.20231745480997612
12.910000000000618,0.16,0.20203073601537133
12.915000000000619,0.84,0.20445342951715118
12.92000000000062,0.84,0.21053033935114762
12.92500000000062,0.92,0.22069432295263275
12.930000000000621,0.92,0.2346351183821981
12.935000000000622,0.26,0.2512848791578198
12.940000000000623,0.26,0.26885112812575596
12.945000000000624,0.04,0.2861762617740528
12.950000000000625,0.04,0.3033385470794934
12.955000000000625,0.15,0.32128894737414676
12.960000000000626,0.15,0.34141714190615724
12.965000000000627,0.31,0.36498498169746196
12.970000000000628,0.31,0.39262898959446424
12.975000000000628,0.32,0.4239549058935443
12.98000000000063,0.32,0.4581611160988939
12.98500000000063,0.63,0.49475828493702634
12.99000000000063,0.63,0.5340049156459095
12.995000000000632,1.08,0.5764250552192529
13.000000000000632,1.08,0.6217210323905554
13.005000000000633,0.28,0.6686556508438938
13.010000000000634,0.28,0.7153660465894389
13.015000000000635,0.95,0.760367004818535
13.020000000000636,0.95,0.8036048259733873
13.025000000000636,0.84,0.84564592682382
13.030000000000637,0.84,0.8866698950842323
13.035000000000638,0.74,0.9265894827490755
13.040000000000639,0.74,0.9656477943774514
13.04500000000064,2.68,1.0045037186948416
13.05000000000064,2.68,1.0437481467336547
13.055000000000641,1.49,1.0835291916491225
13.060000000000642,1.49,1.1236992071686678
13.065000000000643,1.08,1.1638690797626792
13.070000000000643,1.08,1.2041961515609427
13.075000000000644,1.07,1.2447357566445711
13.080000000000645,1.07,1.2845795526876935
13.085000000000646,1.49,1.3232792212684232
13.090000000000646,1.49,1.361435125903248
13.095000000000647,3.22,1.3993229531073068
13.100000000000648,3.22,1.436978218702246
13.105000000000649,2.24,1.4743792564881875
13.11000000000065,2.24,1.5107944813841623
13.11500000000065,1.3,1.5453648401857012
13.120000000000651,1.3,1.5778472039423164
13.125000000000652,1.71,1.6086855173054169
13.130000000000653,1.71,1.6386314812213822
13.135000000000653,2.39,1.6668636907160945
13.140000000000654,2.39,1.6905727709568787
13.145000000000655,1.3,1.7076540625697219
13.150000000000656,1.3,1.7177609344309406
13.155000000000657,2.17,1.7213950311071555
13.160000000000657,2.17,1.7183616477662798
13.165000000000658,1.94,1.7077225415100292
13.170000000000659,1.94,1.6893679596663878
13.17500000000066,1.13,1.6632809877505792
13.18000000000066,1.13,1.6292681197236643
13.185000000000661,1.83,1.5862597077096994
13.190000000000662,1.83,1.5343588334065903
13.195000000000663,1.91,1.477429500398203
13.200000000000664,1.91,1.419512855120806
13.205000000000664,1.11,1.3625162545276783
13.210000000000665,1.11,1.3063887446710913
13.215000000000666,2.32,1.249862757094336
13.220000000000667,2.32,1.191863664753822
13.225000000000668,0.92,1.133048879536986
13.230000000000668,0.92,1.0769671437679904
13.23500000000067,0.55,1.0265365162409001
13.24000000000067,0.55,0.9809051598014843
13.24500000000067,2.14,0.9383576715765396
13.250000000000671,2.14,0.8984141802215981
13.255000000000672,1.04,0.8632136847042784
13.260000000000673,1.04,0.8367720415657702
13.265000000000674,2.68,0.8209293204483833
13.270000000000675,2.68,0.814676786672296
13.275000000000675,0.44,0.8147174085519406
13.280000000000676,0.44,0.8161939970225124
13.285000000000677,0.19,0.8154804161057604
13.290000000000678,0.19,0.8109338540606493
13.295000000000678,0.94,0.8028891355985164
13.30000000000068,0.94,0.7920270689046198
13.30500000000068,2.11,0.7785579000281092
13.31000000000068,2.11,0.7631708864998782
13.315000000000682,0.13,0.7476819069799397
13.320000000000682,0.13,0.7339664432256077
13.325000000000683,1.24,0.7224176288135464
13.330000000000684,1.24,0.7119045582426783
13.335000000000685,0.87,0.7007087587634017
13.340000000000686,0.87,0.6873714516326312
13.345000000000686,0.55,0.6704902859379192
13.350000000000687,0.55,0.6497466342985793
13.355000000000688,0.48,0.6274039973085183
13.360000000000689,0.48,0.6062727906142656
13.36500000000069,0.39,0.5883308762860118
13.37000000000069,0.39,0.5755114384489006
13.375000000000691,0.46,0.5694871573570307
13.380000000000692,0.46,0.5714929143517812
13.385000000000693,0.61,0.5817023812763445
13.390000000000693,0.61,0.5987426183079065
13.395000000000694,0.52,0.6212253926138058
13.400000000000695,0.52,0.6483808344305785
13.405000000000696,0.01,0.679499260144541
13.410000000000696,0.01,0.7130348159443178
13.415000000000697,0.79,0.7457531317949281
13.420000000000698,0.79,0.7713981777968226
13.425000000000699,0.09,0.7829706045078852
13.4300000000007,0.09,0.7781171250093153
13.4350000000007,1.13,0.7607190487037253
13.440000000000701,1.13,0.7382429127744048
13.445000000000702,1.01,0.7156741341204738
13.450000000000703,1.01,0.6962508759006448
13.455000000000704,1.97,0.6831230067749402
13.460000000000704,1.97,0.67778157335956
13.465000000000705,2.14,0.6781278487767629
13.470000000000706,2.14,0.6788712401792489
13.475000000000707,0.08,0.6755928193616805
13.480000000000707,0.08,0.6660965986177763
13.485000000000708,0.36,0.6490073254715716
13.490000000000709,0.36,0.6245018206618803
13.49500000000071,0.12,0.5942639187749589
13.50000000000071,0.12,0.5612547364670942
13.505000000000711,1.64,0.532848026577769
13.510000000000712,1.64,0.5194571567658548
13.515000000000713,0.82,0.5240759281319539
13.520000000000714,0.82,0.5406943427729605
13.525000000000714,0.76,0.5605294543367563
13.530000000000715,0.76,0.5782821305179968
13.535000000000716,0.42,0.5929305170107396
13.540000000000717,0.42,0.6042522505506307
13.545000000000718,0.58,0.612041818503549
13.550000000000718,0.58,0.616325900152879
13.55500000000072,0.8,0.6175949555917131
13.56000000000072,0.8,0.6163747667583758
13.56500000000072,0.54,0.6129778075494308
13.570000000000721,0.54,0.607336004963267
13.575000000000722,0.63,0.5993604281631116
13.580000000000723,0.63,0.5893236438421137
13.585000000000724,0.34,0.5776468214610578
13.590000000000725,0.34,0.5650077656247978
13.595000000000725,0.75,0.5520567401696751
13.600000000000726,0.75,0.5389970256059926
13.605000000000727,0.68,0.5258285472442198
13.610000000000728,0.68,0.5130778333356257
13.615000000000729,0.66,0.5016957161666814
13.62000000000073,0.66,0.49196756123184293
13.62500000000073,0.28,0.48341845508226117
13.63000000000073,0.28,0.4750872618043761
13.635000000000732,0.09,0.4660487560298707
13.640000000000732,0.09,0.45672803900658154
13.645000000000733,0.41,0.4489258234719734
13.650000000000734,0.41,0.44496034304687704
13.655000000000735,0.54,0.4467585607074432
13.660000000000736,0.54,0.4546837487265005
13.665000000000736,0.26,0.4678941981188065
13.670000000000737,0.26,0.4852673087975955
13.675000000000738,1.03,0.5060842753139762
13.680000000000739,1.03,0.5303331391893545
13.68500000000074,0.19,0.5576241666352791
13.69000000000074,0.19,0.5865971152138971
13.695000000000741,0.25,0.6154484486196257
13.700000000000742,0.25,0.6420767328454416
13.705000000000743,1.15,0.66503785962726
13.710000000000743,1.15,0.6837486740449227
13.715000000000744,1.2,0.6989262266076813
13.720000000000745,1.2,0.7127592079776013
13.725000000000746,0.33,0.7264468957209561
13.730000000000746,0.33,0.7394047964081638
13.735000000000747,1.7,0.7505313304938992
13.740000000000748,1.7,0.7590971900046347
13.745000000000749,1.11,0.765406108072485
13.75000000000075,1.11,0.769914635151494
13.75500000000075,0.92,0.7713248185312095
13.760000000000751,0.92,0.7679773695289687
13.765000000000752,0.27,0.7602238162252345
13.770000000000753,0.27,0.7498173509220717
13.775000000000754,0.36,0.7390510024033673
13.780000000000754,0.36,0.7294553982746836
13.785000000000755,1.3,0.7207425027091793
13.790000000000756,1.3,0.7117839221414142
13.795000000000757,0.75,0.7013485699482178
13.800000000000757,0.75,0.6889077087188658
13.805000000000758,0.5,0.6754218558907222
13.810000000000759,0.5,0.6625928565468017
13.81500000000076,0.74,0.651942118407552
13.82000000000076,0.74,0.6443943589424498
13.825000000000761,1.38,0.6395197860176643
13.830000000000762,1.38,0.6361822780369306
13.835000000000763,0.63,0.6333237570802176
13.840000000000764,0.63,0.6298674025863512
13.845000000000764,0.73,0.6253524931359594
13.850000000000765,0.73,0.6201058499508216
13.855000000000766,0.35,0.6148029329502449
13.860000000000767,0.35,0.60994021228253
13.865000000000768,0.37,0.6054150022943111
13.870000000000768,0.37,0.6010007844589439
13.87500000000077,0.7,0.5966722427304301
13.88000000000077,0.7,0.592343225959243
13.88500000000077,1.02,0.588199518049577
13.890000000000772,1.02,0.5848196152068429
13.895000000000772,0.61,0.5824400082106543
13.900000000000773,0.61,0.5806940626649931
13.905000000000774,0.23,0.5789333274104914
13.910000000000775,0.23,0.5761909708752198
13.915000000000775,0.66,0.5715133693278424
13.920000000000776,0.66,0.5641308806874535
13.925000000000777,0.68,0.5534817174458452
13.930000000000778,0.68,0.5396238603705064
13.935000000000779,0.59,0.5235798957492366
13.94000000000078,0.59,0.5072252600904297
13.94500000000078,0.16,0.492534998417016
13.95000000000078,0.16,0.4806660943574933
13.955000000000782,0.96,0.4717016924791174
13.960000000000782,0.96,0.4648419577432883
13.965000000000783,0.41,0.4588621566532726
13.970000000000784,0.41,0.4533337874572527
13.975000000000785,0.3,0.44874821075084703
13.980000000000786,0.3,0.4461058317567232
13.985000000000786,0.26,0.44689291235260864
13.990000000000787,0.26,0.45247952131456326
13.995000000000788,0.33,0.4632706061974977
14.000000000000789,0.33,0.47846937115777805
14.00500000000079,0.88,0.49657518750164636
14.01000000000079,0.88,0.5157526440153489
14.015000000000791,0.42,0.5343113963842987
14.020000000000792,0.42,0.5518199536421898
14.025000000000793,0.26,0.5691103845043278
14.030000000000793,0.26,0.5868945773887406
14.035000000000794,0.82,0.6051421128014968
14.040000000000795,0.82,0.6237917686661851
14.045000000000796,0.92,0.6428337852396174
14.050000000000797,0.92,0.6613225157187569
