time,voltage,lowess
0.005,0.65,3.6711615395597086
0.01,0.65,3.6363278056301938
0.015,3.89,3.6043232709732504
0.02,3.89,3.575452008130447
0.025,3.27,3.549471546874828
0.030000000000000002,3.27,3.5255685484843498
0.035,3.61,3.5030822863804554
0.04,3.61,3.4816880962359416
0.045,2.86,3.461086335844991
0.049999999999999996,2.86,3.4411677743983513
0.05499999999999999,3.6,3.435626650257078
0.05999999999999999,3.6,3.438334602941199
0.06499999999999999,3.91,3.445178563004016
0.06999999999999999,3.91,3.451470896612677
0.075,2.32,3.455935782525323
0.08,2.32,3.4594873303312714
0.085,3.74,3.4615712503328995
0.09000000000000001,3.74,3.4593154586995447
0.09500000000000001,3.61,3.4518923655194707
0.10000000000000002,3.61,3.444254219574623
0.10500000000000002,3.02,3.440637227332398
0.11000000000000003,3.02,3.4388691997597456
0.11500000000000003,3.6,3.4359193229183154
0.12000000000000004,3.6,3.4305956493640473
0.12500000000000003,3.36,3.4254407760945007
0.13000000000000003,3.36,3.425550768393065
0.13500000000000004,3.73,3.4307240195431077
0.14000000000000004,3.73,3.4356741669422277
0.14500000000000005,2.94,3.437455113051027
0.15000000000000005,2.94,3.4366777092263505
0.15500000000000005,3.64,3.4364057557023893
0.16000000000000006,3.64,3.439431855309739
0.16500000000000006,3.71,3.442368560898146
0.17000000000000007,3.71,3.4414032199224653
0.17500000000000007,2.35,3.439233531029429
0.18000000000000008,2.35,3.4396328777457823
0.18500000000000008,3.78,3.4421708571750007
0.19000000000000009,3.78,3.4434829101291347
0.1950000000000001,3.62,3.442362654788897
0.2000000000000001,3.62,3.4424122155948456
0.2050000000000001,2.86,3.4447784766871195
0.2100000000000001,2.86,3.4444459920556807
0.2150000000000001,3.84,3.438186876930685
0.2200000000000001,3.84,3.428324944072342
0.22500000000000012,3.3,3.42150585660087
0.23000000000000012,3.3,3.423800434412743
0.23500000000000013,3.7,3.4332318810737648
0.24000000000000013,3.7,3.4424845872000978
0.24500000000000013,2.64,3.44762862359919
0.2500000000000001,2.64,3.4480380055804747
0.2550000000000001,3.68,3.443116965298426
0.2600000000000001,3.68,3.436004611636873
0.2650000000000001,3.89,3.431587407700737
0.27000000000000013,3.89,3.430833756946927
0.27500000000000013,2.36,3.4324467856492933
0.28000000000000014,2.36,3.436082691658057
0.28500000000000014,3.85,3.4417986349243934
0.29000000000000015,3.85,3.4466511979718213
0.29500000000000015,3.2,3.4482797771996156
0.30000000000000016,3.2,3.451007477366984
0.30500000000000016,3.36,3.459757912976963
0.31000000000000016,3.36,3.4717856097824478
0.31500000000000017,3.51,3.481312323119145
0.3200000000000002,3.51,3.486069495780135
0.3250000000000002,3.7,3.4902655178270345
0.3300000000000002,3.7,3.4994473395173284
0.3350000000000002,3.79,3.5097303544279086
0.3400000000000002,3.79,3.5123406844674334
0.3450000000000002,2.51,3.505269492011032
0.3500000000000002,2.51,3.492077981853845
0.3550000000000002,3.74,3.475137371082137
0.3600000000000002,3.74,3.4563642955080107
0.3650000000000002,3.73,3.4388159276636934
0.3700000000000002,3.73,3.4256738657222647
0.3750000000000002,2.56,3.419029760669167
0.3800000000000002,2.56,3.4175118036684755
0.38500000000000023,3.79,3.418157849762092
0.39000000000000024,3.79,3.4181033991823826
0.39500000000000024,3.25,3.417607640697863
0.40000000000000024,3.25,3.422156497197505
0.40500000000000025,3.42,3.4347058968403252
0.41000000000000025,3.42,3.45034335210223
0.41500000000000026,3.43,3.4626894273230904
0.42000000000000026,3.43,3.469993917802739
0.42500000000000027,3.54,3.4770942877687503
0.43000000000000027,3.54,3.48959145148907
0.4350000000000003,3.88,3.503894885293312
0.4400000000000003,3.88,3.5122254948844596
0.4450000000000003,2.44,3.5133209128995295
0.4500000000000003,2.44,3.510476487182346
0.4550000000000003,3.74,3.504512961346152
0.4600000000000003,3.74,3.495812966557531
0.4650000000000003,3.83,3.487177283723953
0.4700000000000003,3.83,3.480926483179474
0.4750000000000003,2.43,3.475957016693181
0.4800000000000003,2.43,3.469807112858146
0.4850000000000003,3.87,3.4617070214324976
0.4900000000000003,3.87,3.450987075118994
0.49500000000000033,3.25,3.4397323197851857
0.5000000000000003,3.25,3.434343076396115
0.5050000000000003,3.62,3.438293830729457
0.5100000000000003,3.62,3.447704145657812
0.5150000000000003,3.02,3.456506137017979
0.5200000000000004,3.02,3.4612461625055624
0.5250000000000004,3.59,3.462352844520161
0.5300000000000004,3.59,3.4636252681207678
0.5350000000000004,3.98,3.4671798122061235
0.5400000000000004,3.98,3.471101121736478
0.5450000000000004,2.37,3.4722534310021747
0.5500000000000004,2.37,3.4701047828940186
0.5550000000000004,3.81,3.4660634047642613
0.5600000000000004,3.81,3.4596884148911053
0.5650000000000004,3.42,3.451519538253484
0.5700000000000004,3.42,3.4467451442611527
0.5750000000000004,3.28,3.4496252179982885
0.5800000000000004,3.28,3.4578453120855044
0.5850000000000004,3.34,3.4657599230927145
0.5900000000000004,3.34,3.4703362039622236
0.5950000000000004,3.53,3.476192463890744
0.6000000000000004,3.53,3.4891739534991126
0.6050000000000004,4.02,3.5060727201437167
0.6100000000000004,4.02,3.5196800820425533
0.6150000000000004,2.41,3.527621411968873
0.6200000000000004,2.41,3.53080766257031
0.6250000000000004,3.72,3.5290722069982365
0.6300000000000004,3.72,3.5218760563633666
0.6350000000000005,3.9,3.5075620278982256
0.6400000000000005,3.9,3.48800361875739
0.6450000000000005,2.39,3.470317594943427
0.6500000000000005,2.39,3.4590773396971195
0.6550000000000005,3.82,3.4536075791266048
0.6600000000000005,3.82,3.4486519586966424
0.6650000000000005,3.36,3.441063771032655
0.6700000000000005,3.36,3.4345131030304796
0.6750000000000005,3.02,3.4322422078860364
0.6800000000000005,3.02,3.431515922937445
0.6850000000000005,3.83,3.4297101008579154
0.6900000000000005,3.83,3.427282933361614
0.6950000000000005,3.36,3.427255690194393
0.7000000000000005,3.36,3.433181009979833
0.7050000000000005,3.72,3.441730780610698
0.7100000000000005,3.72,3.4451356091605785
0.7150000000000005,2.67,3.4412583003915698
0.7200000000000005,2.67,3.432701915888291
0.7250000000000005,3.76,3.421429726604959
0.7300000000000005,3.76,3.4112372628739394
0.7350000000000005,3.64,3.4069312070677316
0.7400000000000005,3.64,3.4078863658765197
0.7450000000000006,2.56,3.4088892869991523
0.7500000000000006,2.56,3.4070874412192405
0.7550000000000006,3.92,3.4035432107276486
0.7600000000000006,3.92,3.399200556513945
0.7650000000000006,3.2,3.396927407718534
0.7700000000000006,3.2,3.4033077450855505
0.7750000000000006,3.53,3.420897033855941
0.7800000000000006,3.53,3.4438896396802043
0.7850000000000006,3.07,3.4644661145657065
0.7900000000000006,3.07,3.479258360813274
0.7950000000000006,3.62,3.491975523073398
0.8000000000000006,3.62,3.5079528091779255
0.8050000000000006,4.09,3.5248872659724713
0.8100000000000006,4.09,3.53672887119595
0.8150000000000006,2.32,3.5400581919011307
0.8200000000000006,2.32,3.535631434059199
0.8250000000000006,3.78,3.5256309464764843
0.8300000000000006,3.78,3.5102370849406275
0.8350000000000006,3.78,3.4901899791768263
0.8400000000000006,3.78,3.4700974457122515
0.8450000000000006,2.97,3.4541889996402046
0.8500000000000006,2.97,3.4415793107576067
0.8550000000000006,3.36,3.4301702970753394
0.8600000000000007,3.36,3.4185171232694493
0.8650000000000007,3.39,3.4093327252799575
0.8700000000000007,3.39,3.408529132879213
0.8750000000000007,3.8,3.41678254642701
0.8800000000000007,3.8,3.429398887421971
0.8850000000000007,2.89,3.4428127818323064
0.8900000000000007,2.89,3.4543116881434694
0.8950000000000007,3.67,3.4610629783729383
0.9000000000000007,3.67,3.4629130118487823
0.9050000000000007,3.81,3.458935310547811
0.9100000000000007,3.81,3.44965237424694
0.9150000000000007,2.36,3.440068036301326
0.9200000000000007,2.36,3.434024205016801
0.9250000000000007,3.91,3.431609248064538
0.9300000000000007,3.91,3.4292163384410017
0.9350000000000007,3.33,3.4240654643625965
0.9400000000000007,3.33,3.419538500223195
0.9450000000000007,3.03,3.4192733061685527
0.9500000000000007,3.03,3.4211433208364093
0.9550000000000007,3.69,3.422381060812387
0.9600000000000007,3.69,3.422615489436719
0.9650000000000007,3.4,3.425394727577013
0.9700000000000008,3.4,3.4362723834426308
0.9750000000000008,3.69,3.4534106815295704
0.9800000000000008,3.69,3.4675912505385966
0.9850000000000008,2.96,3.4732938449651676
0.9900000000000008,2.96,3.4717793644571424
0.9950000000000008,3.69,3.4656652788409437
1.0000000000000007,3.69,3.457800402980785
1.0050000000000006,3.83,3.44901293094342
1.0100000000000005,3.83,3.4386040532454434
1.0150000000000003,2.33,3.4273977627772685
1.0200000000000002,2.33,3.4168332055594357
1.0250000000000001,3.8,3.4077233824900355
1.03,3.8,3.3986063384605507
1.035,3.3,3.3889303013950767
1.0399999999999998,3.3,3.3832714922807283
1.0449999999999997,3.08,3.3852599393860365
1.0499999999999996,3.08,3.3915502289034305
1.0549999999999995,3.46,3.3973286993005156
1.0599999999999994,3.46,3.4015474180765386
1.0649999999999993,3.49,3.408005410060641
1.0699999999999992,3.49,3.420962707746297
1.074999999999999,3.81,3.4366572752826516
1.079999999999999,3.81,3.4473917485235277
1.0849999999999989,2.44,3.4504702850251223
1.0899999999999987,2.44,3.446951070188002
1.0949999999999986,3.76,3.4380110020290284
1.0999999999999985,3.76,3.4273678671208296
1.1049999999999984,3.68,3.4213471777042557
1.1099999999999983,3.68,3.4225478078359273
1.1149999999999982,2.67,3.427317198695765
1.119999999999998,2.67,3.4301735745426662
1.124999999999998,3.68,3.4288075927889134
1.129999999999998,3.68,3.4241827945014554
1.1349999999999978,3.32,3.421214137219527
1.1399999999999977,3.32,3.426135984245388
1.1449999999999976,3.87,3.438069983063951
1.1499999999999975,3.87,3.450186160628409
1.1549999999999974,2.61,3.45741758424016
1.1599999999999973,2.61,3.4570180988637618
1.1649999999999971,3.71,3.4483966939841535
1.169999999999997,3.71,3.4369912379135776
1.174999999999997,3.85,3.4304601599477533
1.1799999999999968,3.85,3.429612104336064
1.1849999999999967,2.6,3.4283476033766065
1.1899999999999966,2.6,3.4224520534682967
1.1949999999999965,3.69,3.4128521256654363
1.1999999999999964,3.69,3.400561624930249
1.2049999999999963,3.27,3.3878591136288136
1.2099999999999962,3.27,3.3804106754788408
1.214999999999996,3.66,3.379871755219391
1.219999999999996,3.66,3.38228020579008
1.2249999999999959,2.72,3.385107167734517
1.2299999999999958,2.72,3.38638698653857
1.2349999999999957,3.69,3.3839834275387863
1.2399999999999956,3.69,3.381148521923407
1.2449999999999954,3.65,3.3838204290224314
1.2499999999999953,3.65,3.3916994466998305
1.2549999999999952,2.58,3.3977114865412346
1.2599999999999951,2.58,3.397166553119541
1.264999999999995,3.92,3.391694827736722
1.269999999999995,3.92,3.3845653499836015
1.2749999999999948,3.19,3.380621822101304
1.2799999999999947,3.19,3.386000287382163
1.2849999999999946,3.64,3.4001168140361977
1.2899999999999945,3.64,3.415454528869972
1.2949999999999944,2.67,3.426416361025371
1.2999999999999943,2.67,3.4307266038608746
1.3049999999999942,3.66,3.4273653511861326
1.309999999999994,3.66,3.4203641366875925
1.314999999999994,4.08,3.4152702962904775
1.3199999999999938,4.08,3.412713966741706
1.3249999999999937,2.46,3.410724128757067
1.3299999999999936,2.46,3.409042207622168
1.3349999999999935,3.82,3.4087015112209547
1.3399999999999934,3.82,3.4071579946797006
1.3449999999999933,3.13,3.4010529671299308
1.3499999999999932,3.13,3.3939042701406774
1.354999999999993,3.23,3.390874044403935
1.359999999999993,3.23,3.390261142647509
1.3649999999999929,3.44,3.389249884388428
1.3699999999999928,3.44,3.387197455860646
1.3749999999999927,3.77,3.384493671089305
1.3799999999999926,3.77,3.3843734946775283
1.3849999999999925,3.45,3.3887998509680037
1.3899999999999924,3.45,3.3932451486958
1.3949999999999922,2.39,3.3896122439364547
1.3999999999999921,2.39,3.374970282905894
1.404999999999992,3.8,3.3542971055702404
1.409999999999992,3.8,3.335988801777678
1.4149999999999918,3.2,3.3289305254494868
1.4199999999999917,3.2,3.3379611978317985
1.4249999999999916,3.39,3.3601878456933276
1.4299999999999915,3.39,3.386348779869074
1.4349999999999914,3.03,3.4079450089360463
1.4399999999999913,3.03,3.422639314971568
1.4449999999999912,3.64,3.431554798823078
1.449999999999991,3.64,3.4386960198442527
1.454999999999991,4.01,3.4480371699719217
1.4599999999999909,4.01,3.458835319040031
1.4649999999999908,2.35,3.4666423216694358
1.4699999999999906,2.35,3.468662781617187
1.4749999999999905,3.82,3.465171684361269
1.4799999999999904,3.82,3.4565665161364465
1.4849999999999903,3.32,3.444928838720382
1.4899999999999902,3.32,3.436392304786805
1.4949999999999901,3.37,3.436047263135178
1.49999999999999,3.37,3.4416029991230506
1.50499999999999,3.25,3.4473437661805453
1.5099999999999898,3.25,3.449487423605313
1.5149999999999897,3.57,3.448435953117591
1.5199999999999896,3.57,3.4474467913367497
1.5249999999999895,3.97,3.446327375282938
1.5299999999999894,3.97,3.4427097409283114
1.5349999999999893,2.37,3.437337561201703
1.5399999999999892,2.37,3.4313472589082017
1.544999999999989,3.75,3.423618704105715
1.549999999999989,3.75,3.413259575389184
1.5549999999999888,3.38,3.401925882142409
1.5599999999999887,3.38,3.393320164558306
1.5649999999999886,2.93,3.3895806587475334
1.5699999999999885,2.93,3.389064090548101
1.5749999999999884,3.71,3.3897203626760906
1.5799999999999883,3.71,3.3903976862753207
1.5849999999999882,3.32,3.393614318142688
1.589999999999988,3.32,3.4045468157856775
1.594999999999988,3.7,3.421831568026096
1.5999999999999879,3.7,3.437436503873776
1.6049999999999878,2.9,3.445989508777801
1.6099999999999877,2.9,3.448026975044498
1.6149999999999876,3.63,3.447078134602225
1.6199999999999875,3.63,3.4469212878597797
1.6249999999999873,3.85,3.447050845427665
1.6299999999999872,3.85,3.4452739719367256
1.6349999999999871,2.32,3.442877640728903
1.639999999999987,2.32,3.442033625487948
1.644999999999987,3.76,3.4422163832984065
1.6499999999999868,3.76,3.439999005190353
1.6549999999999867,3.49,3.433796875979566
1.6599999999999866,3.49,3.4279163752411197
1.6649999999999865,3.02,3.4257169585058764
1.6699999999999864,3.02,3.4242013174744037
1.6749999999999863,3.68,3.4203350526667897
1.6799999999999862,3.68,3.4147552667663565
1.684999999999986,3.35,3.4127148842375723
1.689999999999986,3.35,3.419923136963213
1.6949999999999859,3.71,3.4338498340460744
1.6999999999999857,3.71,3.44653808162311
1.7049999999999856,2.71,3.453774683551984
1.7099999999999855,2.71,3.455799717178898
1.7149999999999854,3.68,3.454167645466818
1.7199999999999853,3.68,3.452127190776875
1.7249999999999852,3.91,3.4517661377549436
1.729999999999985,3.91,3.452679879818769
1.734999999999985,2.37,3.4541371948130566
1.739999999999985,2.37,3.4557113566700575
1.7449999999999848,3.79,3.456138178547551
1.7499999999999847,3.79,3.4520723897347145
1.7549999999999846,3.4,3.442682842441505
1.7599999999999845,3.4,3.4339191340184816
1.7649999999999844,3.26,3.430635967370754
1.7699999999999843,3.26,3.429709688882312
1.7749999999999841,3.47,3.4265568651319813
1.779999999999984,3.47,3.420388858473502
1.784999999999984,3.42,3.4155522142708703
1.7899999999999838,3.42,3.416970471065858
1.7949999999999837,3.78,3.421419682023802
1.7999999999999836,3.78,3.4222100176700487
1.8049999999999835,2.53,3.4183299241121192
1.8099999999999834,2.53,3.411652788720285
1.8149999999999833,3.68,3.4024761781536452
1.8199999999999832,3.68,3.3922334188534364
1.824999999999983,3.68,3.383684325964086
1.829999999999983,3.68,3.3786608601460233
1.8349999999999829,2.65,3.3780546257724873
1.8399999999999828,2.65,3.3821136294557266
1.8449999999999827,3.74,3.3915443478019234
1.8499999999999825,3.74,3.4045234653110517
1.8549999999999824,3.22,3.418386366634931
1.8599999999999823,3.22,3.4362263396589476
1.8649999999999822,3.42,3.463943392985753
1.8699999999999821,3.42,3.5016431453951546
1.874999999999982,3.46,3.543282069705187
1.879999999999982,3.46,3.5815904426071534
1.8849999999999818,3.88,3.613506215901209
1.8899999999999817,3.88,3.6398827938769323
1.8949999999999816,3.67,3.6579231083142614
1.8999999999999815,3.67,3.6633811753792016
1.9049999999999814,1.67,3.6591292638931097
1.9099999999999813,1.67,3.651100588761912
1.9149999999999812,3.82,3.6400756433070374
1.919999999999981,3.82,3.6248996761679044
1.924999999999981,3.72,3.6068425528680175
1.9299999999999808,3.72,3.5870872232958178
1.9349999999999807,2.55,3.5639484770277416
1.9399999999999806,2.55,3.5331152091758433
1.9449999999999805,3.96,3.4965357882618577
1.9499999999999804,3.96,3.4642703239404584
1.9549999999999803,3.26,3.444277398997411
1.9599999999999802,3.26,3.437242435655979
1.96499999999998,3.66,3.438589393713142
1.96999999999998,3.66,3.44193775073597
1.9749999999999799,2.75,3.4430468750869934
1.9799999999999798,2.75,3.441173811874075
1.9849999999999797,3.73,3.437400306342285
1.9899999999999796,3.73,3.436288233262868
1.9949999999999795,3.77,3.443370430780936
1.9999999999999793,3.77,3.456758674852853
2.0049999999999795,2.45,3.4672749247255843
2.0099999999999794,2.45,3.469217708672428
2.0149999999999793,3.9,3.4637527406913735
2.019999999999979,3.9,3.4537241483527037
2.024999999999979,3.34,3.4433023118284543
2.029999999999979,3.34,3.43837328470388
2.034999999999979,3.69,3.4400274702355453
2.0399999999999787,3.69,3.4431076390900284
2.0449999999999786,2.6,3.4434994538695074
2.0499999999999785,2.6,3.439993612089839
2.0549999999999784,3.68,3.432664951013101
2.0599999999999783,3.68,3.4249044015603927
2.064999999999978,3.8,3.420560841497618
2.069999999999978,3.8,3.4197448234897423
2.074999999999978,2.36,3.4213238115556743
2.079999999999978,2.36,3.424818111495329
2.0849999999999778,3.88,3.4286651600023372
2.0899999999999777,3.88,3.4292612238543656
2.0949999999999775,3.25,3.4256601949340912
2.0999999999999774,3.25,3.4233244572275043
2.1049999999999773,3.3,3.4267412965130566
2.1099999999999772,3.3,3.432832242209161
2.114999999999977,3.53,3.4373289019914397
2.119999999999977,3.53,3.4398376433515203
2.124999999999977,3.42,3.4441487231368884
2.129999999999977,3.42,3.454330096444304
2.1349999999999767,3.83,3.467156338367861
2.1399999999999766,3.83,3.4757642447616677
2.1449999999999765,2.55,3.4781215212242373
2.1499999999999764,2.55,3.4757168893564607
2.1549999999999763,3.81,3.4694619257588286
2.159999999999976,3.81,3.4617791971153107
2.164999999999976,3.68,3.4573375541509854
2.169999999999976,3.68,3.457888745894276
2.174999999999976,2.95,3.460249944573031
2.1799999999999757,2.95,3.4607504385296175
2.1849999999999756,3.73,3.458462580299579
2.1899999999999755,3.73,3.4536450870609112
2.1949999999999754,3.27,3.450208765375642
2.1999999999999753,3.27,3.454894581957301
2.204999999999975,3.76,3.4685719768347774
2.209999999999975,3.76,3.4851121459796475
2.214999999999975,2.99,3.4982700471100476
2.219999999999975,2.99,3.5050830287477117
2.2249999999999748,3.67,3.5064453308497305
2.2299999999999747,3.67,3.5060401780630115
2.2349999999999746,4.02,3.5045183710155174
2.2399999999999745,4.02,3.5004680680167986
2.2449999999999743,2.29,3.4948878201504354
2.2499999999999742,2.29,3.4899966184028783
2.254999999999974,3.73,3.4860273401615123
2.259999999999974,3.73,3.4794749054221144
2.264999999999974,3.48,3.468321067955808
2.269999999999974,3.48,3.45743575603244
2.2749999999999737,3.08,3.451768382771787
2.2799999999999736,3.08,3.449196905428698
2.2849999999999735,3.65,3.4457364184009958
2.2899999999999734,3.65,3.439958677435336
2.2949999999999733,3.42,3.4343645552659936
2.299999999999973,3.42,3.4328801352074034
2.304999999999973,3.82,3.433280941364748
2.309999999999973,3.82,3.429979486808845
2.314999999999973,2.67,3.4225001927905385
2.3199999999999728,2.67,3.413113295403452
2.3249999999999726,3.66,3.4029771981911767
2.3299999999999725,3.66,3.3943430769706646
2.3349999999999724,3.57,3.3891824244421915
2.3399999999999723,3.57,3.38689303140097
2.344999999999972,2.53,3.3861946386650534
2.349999999999972,2.53,3.3869228759389722
2.354999999999972,3.92,3.3893700095215107
2.359999999999972,3.92,3.3920704396813575
2.364999999999972,3.31,3.3955882207245516
2.3699999999999717,3.31,3.405174740890128
2.3749999999999716,3.37,3.421631150013828
2.3799999999999715,3.37,3.4378284002626143
2.3849999999999714,3.32,3.4487082390495734
2.3899999999999713,3.32,3.4541679083868178
2.394999999999971,3.49,3.454368390662137
2.399999999999971,3.49,3.4506565718993154
2.404999999999971,4.04,3.4428616599385906
2.409999999999971,4.04,3.429851195410098
2.4149999999999707,2.58,3.415133364158949
2.4199999999999706,2.58,3.4022793855254223
2.4249999999999705,4.0,3.390853884210505
2.4299999999999704,4.0,3.379706275254516
2.4349999999999703,3.13,3.3693910873782165
2.43999999999997,3.13,3.360995223840508
2.44499999999997,2.82,3.3546490542469827
2.44999999999997,2.82,3.350350815743019
2.45499999999997,3.83,3.3495409390932855
2.4599999999999698,3.83,3.3526935818562076
2.4649999999999697,3.26,3.3623264244485047
2.4699999999999696,3.26,3.383958946231498
2.4749999999999694,3.66,3.4152583055025247
2.4799999999999693,3.66,3.4443112006290333
2.4849999999999692,2.87,3.4621952533036477
2.489999999999969,2.87,3.4695210739975164
2.494999999999969,3.71,3.470842949191425
2.499999999999969,3.71,3.470714424500356
2.504999999999969,3.95,3.469523383736197
2.5099999999999687,3.95,3.465339124124981
2.5149999999999686,2.29,3.4594145276819646
2.5199999999999685,2.29,3.4542206245222595
2.5249999999999684,3.78,3.449663722410658
2.5299999999999683,3.78,3.4425782730276726
2.534999999999968,3.42,3.432127997273897
2.539999999999968,3.42,3.423870108936091
2.544999999999968,2.9,3.4226084455166945
2.549999999999968,2.9,3.425443473652854
2.5549999999999677,3.69,3.4278261737232203
2.5599999999999676,3.69,3.4285918557893376
2.5649999999999675,3.39,3.4308906764220195
2.5699999999999674,3.39,3.439294118433742
2.5749999999999673,3.92,3.452199829433322
2.579999999999967,3.92,3.4628736635760564
2.584999999999967,2.6,3.4679295317025334
2.589999999999967,2.6,3.4681837076908946
2.594999999999967,3.71,3.4646937474142927
2.599999999999967,3.71,3.4601379408332065
2.6049999999999667,3.68,3.4576138546286113
2.6099999999999666,3.68,3.4573397125771224
2.6149999999999665,2.32,3.458595258330441
2.6199999999999664,2.32,3.4619557873296976
2.6249999999999662,3.91,3.467618937284638
2.629999999999966,3.91,3.472373757239969
2.634999999999966,3.36,3.4746432422168727
2.639999999999966,3.36,3.47950349024845
2.644999999999966,3.46,3.4903010701003954
2.6499999999999657,3.46,3.501706082465002
2.6549999999999656,3.44,3.5071072980750957
2.6599999999999655,3.44,3.506031661521671
2.6649999999999654,3.54,3.503702619942453
2.6699999999999653,3.54,3.5048265583090683
2.674999999999965,3.95,3.5060857531676994
2.679999999999965,3.95,3.5014115438237834
2.684999999999965,2.48,3.4911680459059373
2.689999999999965,2.48,3.478809511940069
2.6949999999999648,3.78,3.4650399007508894
2.6999999999999647,3.78,3.449616113457524
2.7049999999999645,3.63,3.4330679145161627
2.7099999999999644,3.63,3.417100613751703
2.7149999999999643,2.6,3.40399934231453
2.7199999999999642,2.6,3.394775040167589
2.724999999999964,3.82,3.389377795931892
2.729999999999964,3.82,3.3856709031527514
2.734999999999964,3.22,3.383694414167451
2.739999999999964,3.22,3.388540984147789
2.7449999999999637,3.36,3.4015771945257107
2.7499999999999636,3.36,3.4162655218936977
2.7549999999999635,3.35,3.4265238020329516
2.7599999999999634,3.35,3.431366132687707
2.7649999999999633,3.53,3.434203564178662
2.769999999999963,3.53,3.439765620946279
2.774999999999963,3.9,3.4459744315697263
2.779999999999963,3.9,3.446574696595545
2.784999999999963,2.56,3.441205395497682
2.7899999999999627,2.56,3.4339992405578195
2.7949999999999626,3.74,3.427661383631665
2.7999999999999625,3.74,3.4222309015265857
2.8049999999999624,3.56,3.4154950094448338
2.8099999999999623,3.56,3.407283416503469
2.814999999999962,2.47,3.400481943720639
2.819999999999962,2.47,3.3967409240871165
2.824999999999962,3.87,3.395852366601544
2.829999999999962,3.87,3.3954174996709683
2.8349999999999618,3.42,3.3950687114709073
2.8399999999999617,3.42,3.399906198763157
2.8449999999999616,3.2,3.411438442646775
2.8499999999999615,3.2,3.422598122038465
2.8549999999999613,3.42,3.4271454431815274
2.8599999999999612,3.42,3.425914803042592
2.864999999999961,3.46,3.4260172640943174
2.869999999999961,3.46,3.4346208993699383
2.874999999999961,3.82,3.4496537285602322
2.879999999999961,3.82,3.463262677298555
2.8849999999999607,2.64,3.4721399353186024
2.8899999999999606,2.64,3.4768378721997024
2.8949999999999605,3.72,3.4765542544087364
2.8999999999999604,3.72,3.4714523991384114
2.9049999999999603,3.87,3.4625216304465907
2.90999999999996,3.87,3.4521151790113276
2.91499999999996,2.36,3.4448073361114298
2.91999999999996,2.36,3.4429095833274643
2.92499999999996,3.87,3.4455006839592057
2.9299999999999597,3.87,3.448535047297926
2.9349999999999596,3.24,3.450160271064658
2.9399999999999595,3.24,3.456010054987307
2.9449999999999594,3.19,3.4728005901862673
2.9499999999999593,3.19,3.4992534761102454
2.954999999999959,3.69,3.5272738349767367
2.959999999999959,3.69,3.5499125057713545
2.964999999999959,3.57,3.5686490125422217
2.969999999999959,3.57,3.5882778318948776
2.974999999999959,4.09,3.6061191596749094
2.9799999999999587,4.09,3.615652073122554
2.9849999999999586,2.22,3.616159572049229
2.9899999999999585,2.22,3.610727009820486
2.9949999999999584,3.73,3.59990049371455
2.9999999999999583,3.73,3.584252005421648
3.004999999999958,3.81,3.5657120780395193
3.009999999999958,3.81,3.5453057375667445
3.014999999999958,2.52,3.525109150397904
3.019999999999958,2.52,3.5085831578053437
3.0249999999999577,3.96,3.497655149095025
3.0299999999999576,3.96,3.490077122794859
3.0349999999999575,3.32,3.484929714644356
3.0399999999999574,3.32,3.4853965439738475
3.0449999999999573,3.4,3.4928008221467017
3.049999999999957,3.4,3.5028903736023342
3.054999999999957,3.53,3.510199671648009
3.059999999999957,3.53,3.513411372883653
3.064999999999957,3.51,3.5166897998438524
3.0699999999999568,3.51,3.5243283534246794
3.0749999999999567,3.95,3.5324635850908104
3.0799999999999566,3.95,3.5343337402692567
3.0849999999999564,2.4,3.529476847358124
3.0899999999999563,2.4,3.520984365837356
3.0949999999999562,3.8,3.5099289581165802
3.099999999999956,3.8,3.4978049431550966
3.104999999999956,3.72,3.488738638935906
3.109999999999956,3.72,3.4846930196958406
3.114999999999956,2.7,3.4828098213915855
3.1199999999999557,2.7,3.479342352725338
3.1249999999999556,3.81,3.4731540309255062
3.1299999999999555,3.81,3.465683579719805
3.1349999999999554,3.29,3.46247823669236
3.1399999999999553,3.29,3.4694886455458294
3.144999999999955,3.89,3.4853271622214144
3.149999999999955,3.89,3.5031378639722064
3.154999999999955,2.55,3.517710589852268
3.159999999999955,2.55,3.526231528553765
3.1649999999999547,3.73,3.526856145736548
3.1699999999999546,3.73,3.522336652254943
3.1749999999999545,4.03,3.516564033035838
3.1799999999999544,4.03,3.510357302260945
3.1849999999999543,2.37,3.504287165810037
3.189999999999954,2.37,3.5003848708296625
3.194999999999954,3.91,3.4997877652874134
3.199999999999954,3.91,3.4989880629162435
3.204999999999954,3.3,3.495676661643515
3.209999999999954,3.3,3.4950929600963074
3.2149999999999537,3.21,3.5037516790841114
3.2199999999999536,3.21,3.520306227785646
3.2249999999999535,3.65,3.5378784211735836
3.2299999999999534,3.65,3.5506183596571432
3.2349999999999532,3.64,3.5563801717008916
3.239999999999953,3.64,3.5577699082939747
3.244999999999953,4.07,3.5572516517878783
3.249999999999953,4.07,3.554174654310378
3.254999999999953,2.32,3.547601627800669
3.2599999999999527,2.32,3.536609729119558
3.2649999999999526,3.81,3.520138919477963
3.2699999999999525,3.81,3.5000055077844183
3.2749999999999524,3.31,3.480986133411055
3.2799999999999523,3.31,3.466081902069481
3.284999999999952,3.19,3.4560928573733007
3.289999999999952,3.19,3.4501352935406477
3.294999999999952,3.68,3.446104502109368
3.299999999999952,3.68,3.44254576125824
3.3049999999999518,3.41,3.4424881687435165
3.3099999999999516,3.41,3.450642114569309
3.3149999999999515,3.76,3.464128653746718
3.3199999999999514,3.76,3.474479118595645
3.3249999999999513,2.82,3.4776391829764846
3.329999999999951,2.82,3.475916389520736
3.334999999999951,3.65,3.47312530554703
3.339999999999951,3.65,3.4724151317020175
3.344999999999951,3.86,3.4746276273960537
3.349999999999951,3.86,3.478024194385535
3.3549999999999507,2.34,3.479316867518932
3.3599999999999506,2.34,3.4771598011603517
3.3649999999999505,3.8,3.4729907603900556
3.3699999999999504,3.8,3.4663713193577
3.3749999999999503,3.51,3.457081900762432
3.37999999999995,3.51,3.4499864274753422
3.38499999999995,3.37,3.44853325293432
3.38999999999995,3.37,3.4492214494127666
3.39499999999995,3.14,3.447853544392036
3.3999999999999497,3.14,3.4437201103919377
3.4049999999999496,3.62,3.4387673167700874
3.4099999999999495,3.62,3.4360380875380283
3.4149999999999494,3.78,3.435826233088716
3.4199999999999493,3.78,3.4363007889009562
3.424999999999949,2.36,3.4367978170902784
3.429999999999949,2.36,3.4364727121867182
3.434999999999949,3.85,3.434061032258386
3.439999999999949,3.85,3.4298333674101738
3.4449999999999488,3.38,3.4264996359788022
3.4499999999999487,3.38,3.428492121735322
3.4549999999999486,3.15,3.4376149203800552
3.4599999999999485,3.15,3.4499598141732926
3.4649999999999483,3.53,3.460708769475376
3.4699999999999482,3.53,3.4687098799049054
3.474999999999948,3.48,3.4767593494554268
3.479999999999948,3.48,3.4881208558367436
3.484999999999948,3.94,3.500766120721214
3.489999999999948,3.94,3.5101570201228345
3.4949999999999477,2.37,3.514410293451607
3.4999999999999476,2.37,3.5124233122686057
3.5049999999999475,3.83,3.502170414569888
3.5099999999999474,3.83,3.4857128873700187
3.5149999999999473,3.61,3.469213738844625
3.519999999999947,3.61,3.455909518332637
3.524999999999947,3.07,3.444845962616201
3.529999999999947,3.07,3.4343779588228487
3.534999999999947,3.62,3.42447147115997
3.5399999999999467,3.62,3.4153084941695164
3.5449999999999466,3.13,3.4097110145652176
3.5499999999999465,3.13,3.41227397075926
3.5549999999999464,3.77,3.422009395449689
3.5599999999999463,3.77,3.4330962897240007
3.564999999999946,2.96,3.441996251560001
3.569999999999946,2.96,3.447857042953563
3.574999999999946,3.68,3.450300625149879
3.579999999999946,3.68,3.451100238918035
3.584999999999946,3.87,3.45101987267449
3.5899999999999457,3.87,3.4483269378341372
3.5949999999999456,2.37,3.4417164977441472
3.5999999999999455,2.37,3.432946694357848
3.6049999999999454,3.78,3.4253161661069607
3.6099999999999453,3.78,3.418191707113241
3.614999999999945,3.32,3.4109314541868536
3.619999999999945,3.32,3.4085032200758536
3.624999999999945,3.21,3.4145985006903787
3.629999999999945,3.21,3.425373947064771
3.6349999999999447,3.38,3.4352746307449817
3.6399999999999446,3.38,3.4418898697655407
3.6449999999999445,3.59,3.4463547508803374
3.6499999999999444,3.59,3.4516335091370847
3.6549999999999443,3.91,3.455729132433905
3.659999999999944,3.91,3.454304521790346
3.664999999999944,2.45,3.4485779069650304
3.669999999999944,2.45,3.4411242336615144
3.674999999999944,3.82,3.431211232871125
3.6799999999999438,3.82,3.4187087614608975
3.6849999999999437,3.43,3.4055589828116
3.6899999999999435,3.43,3.394353241207118
3.6949999999999434,2.66,3.3879470661226225
3.6999999999999433,2.66,3.387043055944883
3.7049999999999432,3.94,3.390385574814044
3.709999999999943,3.94,3.3952412082700754
3.714999999999943,3.22,3.4018944602033683
3.719999999999943,3.22,3.4156300925381773
3.724999999999943,3.47,3.437075456515747
3.7299999999999427,3.47,3.4580017876778317
3.7349999999999426,3.4,3.4709025935231996
3.7399999999999425,3.4,3.476105735503609
3.7449999999999424,3.5,3.48099556560927
3.7499999999999423,3.5,3.49272380088711
3.754999999999942,3.97,3.508474047297531
3.759999999999942,3.97,3.5197168710653437
3.764999999999942,2.57,3.523536888600561
3.769999999999942,2.57,3.5227212173042513
3.7749999999999417,3.73,3.5191512632521245
3.7799999999999416,3.73,3.512704445249843
3.7849999999999415,3.91,3.5019757028381355
3.7899999999999414,3.91,3.4880914232654834
3.7949999999999413,2.38,3.474980761119996
3.799999999999941,2.38,3.46479384870104
3.804999999999941,3.83,3.4567629894589484
3.809999999999941,3.83,3.446822496291432
3.814999999999941,3.36,3.433435374716718
3.8199999999999408,3.36,3.42233368539189
3.8249999999999407,3.17,3.4186844902280984
3.8299999999999406,3.17,3.4202762141227967
3.8349999999999405,3.51,3.4226892455484315
3.8399999999999403,3.51,3.4239910399136004
3.8449999999999402,3.38,3.4282978894587606
3.84999999999994,3.38,3.442436764530991
3.85499999999994,3.82,3.465486238515308
3.85999999999994,3.82,3.489350862619326
3.86499999999994,2.91,3.5075286603677194
3.8699999999999397,2.91,3.5197179381566337
3.8749999999999396,3.65,3.5315403121005184
3.8799999999999395,3.65,3.5469351068093324
3.8849999999999394,4.07,3.5608883614745843
3.8899999999999393,4.07,3.5683082215349207
3.894999999999939,2.34,3.571101044739167
3.899999999999939,2.34,3.5726773813805264
3.904999999999939,3.75,3.5723712753755286
3.909999999999939,3.75,3.5655650388013815
3.9149999999999388,3.98,3.547199684611977
3.9199999999999386,3.98,3.5208003866447206
3.9249999999999385,2.5,3.496045292554941
3.9299999999999384,2.5,3.47748780593277
3.9349999999999383,3.84,3.464318967799678
3.939999999999938,3.84,3.45190751516881
3.944999999999938,3.27,3.437584974137984
3.949999999999938,3.27,3.424998343084826
3.954999999999938,3.14,3.417852998512476
3.959999999999938,3.14,3.414518672136032
3.9649999999999377,3.72,3.412287958961397
3.9699999999999376,3.72,3.410014090466219
3.9749999999999375,3.35,3.4103644463758602
3.9799999999999374,3.35,3.418442590160963
3.9849999999999373,3.66,3.432456388649147
3.989999999999937,3.66,3.4439946751523376
3.994999999999937,2.87,3.4483368154447045
3.999999999999937,2.87,3.4483758727841693
4.004999999999937,3.63,3.4509214486763953
4.009999999999937,3.63,3.4598664881306265
4.014999999999937,3.82,3.4707614469487678
4.0199999999999365,3.82,3.478345720717028
4.024999999999936,2.28,3.483809361807445
4.029999999999936,2.28,3.490620995593948
4.034999999999936,3.75,3.499292525099771
4.039999999999936,3.75,3.5067234799884255
4.044999999999936,3.79,3.5096788567305315
4.049999999999936,3.79,3.511208662877329
4.054999999999936,2.63,3.517246394114753
4.059999999999936,2.63,3.5278066446354894
4.0649999999999356,3.86,3.5389820006533426
4.0699999999999354,3.86,3.546659254994969
4.074999999999935,3.51,3.5511141370564925
4.079999999999935,3.51,3.5581101997124374
4.084999999999935,3.59,3.5702871990464002
4.089999999999935,3.59,3.58217377185286
4.094999999999935,3.62,3.587127767898355
4.099999999999935,3.62,3.583111969104088
4.104999999999935,3.54,3.571469301422643
4.109999999999935,3.54,3.5557252030729956
4.1149999999999345,3.92,3.5382403618253577
4.119999999999934,3.92,3.518868629121463
4.124999999999934,2.32,3.4974178936540756
4.129999999999934,2.32,3.4744775521850646
4.134999999999934,3.78,3.451545085712719
4.139999999999934,3.78,3.4309576805391826
4.144999999999934,3.28,3.416165370132792
4.149999999999934,3.28,3.40930951231982
4.154999999999934,3.21,3.4095551553610295
4.1599999999999335,3.21,3.4144159617700307
4.164999999999933,3.44,3.419946630708997
4.169999999999933,3.44,3.4238462240136016
4.174999999999933,3.44,3.430752543245611
4.179999999999933,3.44,3.4465792070162884
4.184999999999933,3.96,3.467849962573077
4.189999999999933,3.96,3.485925014023421
4.194999999999933,2.55,3.4971182719338922
4.199999999999933,2.55,3.5023308405792735
4.204999999999933,3.67,3.50156253582654
4.2099999999999325,3.67,3.495569261746446
4.214999999999932,3.96,3.4862931685744725
4.219999999999932,3.96,3.4762856726009517
4.224999999999932,2.38,3.468901619293404
4.229999999999932,2.38,3.465703172062141
4.234999999999932,3.84,3.465006932289783
4.239999999999932,3.84,3.461315485890647
4.244999999999932,3.28,3.451724864016053
4.249999999999932,3.28,3.44141784270981
4.2549999999999315,3.32,3.43585186008626
4.259999999999931,3.32,3.4337640444050135
4.264999999999931,3.57,3.431998314328284
4.269999999999931,3.57,3.4294579844255897
4.274999999999931,3.36,3.4299736700800416
4.279999999999931,3.36,3.43891681993906
4.284999999999931,3.75,3.4531959562946737
4.289999999999931,3.75,3.4639408892522257
4.294999999999931,2.78,3.4671469560733317
4.2999999999999305,2.78,3.464835303125791
4.30499999999993,3.69,3.4593265300788816
4.30999999999993,3.69,3.4532126461562864
4.31499999999993,3.92,3.449529820078474
4.31999999999993,3.92,3.448421349433264
4.32499999999993,2.35,3.445813513900045
4.32999999999993,2.35,3.4389183291977035
4.33499999999993,3.73,3.428854417742953
4.33999999999993,3.73,3.4158443379047623
4.34499999999993,3.3,3.4017283823855253
4.3499999999999295,3.3,3.3940367525583186
4.354999999999929,3.47,3.3981382825262894
4.359999999999929,3.47,3.410515377620214
4.364999999999929,2.95,3.424218947304438
4.369999999999929,2.95,3.4339994065937125
4.374999999999929,3.61,3.4370183543799517
4.379999999999929,3.61,3.4349261904644197
4.384999999999929,4.09,3.430322869407971
4.389999999999929,4.09,3.42478351300804
4.3949999999999285,2.29,3.4209248170833026
4.399999999999928,2.29,3.419426110709126
4.404999999999928,3.83,3.4173013291656082
4.409999999999928,3.83,3.410238046044878
4.414999999999928,3.18,3.3967673088093178
4.419999999999928,3.18,3.381969197519208
4.424999999999928,3.04,3.372825362398906
4.429999999999928,3.04,3.3703345247561534
4.434999999999928,3.68,3.372239975748421
4.439999999999928,3.68,3.376138449688683
4.4449999999999275,3.3,3.3833461181141273
4.449999999999927,3.3,3.398241363498234
4.454999999999927,3.69,3.4180250751785084
4.459999999999927,3.69,3.433027180236501
4.464999999999927,2.97,3.4383411147545693
4.469999999999927,2.97,3.4363484618835214
4.474999999999927,3.63,3.4302573702273413
4.479999999999927,3.63,3.4228101903905257
4.484999999999927,3.82,3.414386978677032
4.4899999999999265,3.82,3.4041703275890995
4.494999999999926,2.43,3.394874379709495
4.499999999999926,2.43,3.3896714758195365
4.504999999999926,3.78,3.388474578329068
4.509999999999926,3.78,3.3880517126984513
4.514999999999926,3.26,3.386731560218507
4.519999999999926,3.26,3.38793148236888
4.524999999999926,3.01,3.394014186992656
4.529999999999926,3.01,3.40167925901189
4.5349999999999255,3.79,3.4073825617420037
4.539999999999925,3.79,3.411261967337463
4.544999999999925,3.39,3.418133020123831
4.549999999999925,3.39,3.432699560301385
4.554999999999925,3.74,3.4497699850144254
4.559999999999925,3.74,3.459591394865333
4.564999999999925,2.46,3.459507650577169
4.569999999999925,2.46,3.450982326948494
4.574999999999925,3.71,3.4326425534947553
4.579999999999925,3.71,3.406716604001482
4.5849999999999245,3.83,3.380175977711434
4.589999999999924,3.83,3.3572035461274647
4.594999999999924,2.61,3.3397726157890024
4.599999999999924,2.61,3.3286833972336387
4.604999999999924,3.85,3.3227289247414493
4.609999999999924,3.85,3.3183129797988307
4.614999999999924,2.62,3.3138432281177534
4.619999999999924,2.62,3.313144937990534
4.624999999999924,3.27,3.3199570648191212
4.6299999999999235,3.27,3.3328320085904677
4.634999999999923,3.54,3.34860479179828
4.639999999999923,3.54,3.364839108087286
4.644999999999923,3.42,3.3832299459781927
4.649999999999923,3.42,3.40843179168266
4.654999999999923,3.85,3.435688396401855
4.659999999999923,3.85,3.4530379046845177
4.664999999999923,2.62,3.456485194652995
4.669999999999923,2.62,3.4512535668295756
4.6749999999999226,3.67,3.441752145425537
4.6799999999999224,3.67,3.430349824466413
4.684999999999922,3.81,3.419461090547051
4.689999999999922,3.81,3.4104020190897932
4.694999999999922,2.5,3.403462871531042
4.699999999999922,2.5,3.3986799645873083
4.704999999999922,3.79,3.396138354890844
4.709999999999922,3.79,3.3934297102586295
4.714999999999922,3.22,3.389408356610828
4.719999999999922,3.22,3.388943878339248
4.7249999999999215,3.34,3.3954879300646263
4.729999999999921,3.34,3.4052361084510423
4.734999999999921,3.34,3.4131447880685055
4.739999999999921,3.34,3.4171547637637127
4.744999999999921,3.56,3.4184507083435896
4.749999999999921,3.56,3.420521425706272
4.754999999999921,3.78,3.4230720287333587
4.759999999999921,3.78,3.422666006895967
4.764999999999921,2.38,3.41877866077288
4.7699999999999205,2.38,3.4129122254521196
4.77499999999992,3.76,3.4062450522331433
4.77999999999992,3.76,3.4000902993551865
4.78499999999992,3.37,3.3969136231899855
4.78999999999992,3.37,3.3990344315524634
4.79499999999992,3.02,3.4056075839061632
4.79999999999992,3.02,3.4125183344514545
4.80499999999992,3.66,3.4167512931504955
4.80999999999992,3.66,3.4184380095919384
4.81499999999992,3.46,3.42213211957899
4.8199999999999195,3.46,3.433472840964328
4.824999999999919,3.72,3.4497646346784117
4.829999999999919,3.72,3.4622103195755707
4.834999999999919,2.75,3.4666206493604284
4.839999999999919,2.75,3.464202879849463
4.844999999999919,3.7,3.4566395647968085
4.849999999999919,3.7,3.446993321422538
4.854999999999919,3.84,3.4381302882042704
4.859999999999919,3.84,3.4310069145250863
4.8649999999999185,2.41,3.426552458285555
4.869999999999918,2.41,3.424866771355407
4.874999999999918,3.82,3.424560780982612
4.879999999999918,3.82,3.4226081261005987
4.884999999999918,3.27,3.4184999642364104
4.889999999999918,3.27,3.417928803625806
4.894999999999918,3.24,3.425039948044113
4.899999999999918,3.24,3.436090312433463
4.904999999999918,3.53,3.4458432864487842
4.9099999999999175,3.53,3.4524244136138122
4.914999999999917,3.48,3.4591494173585295
4.919999999999917,3.48,3.4712626820534376
4.924999999999917,3.92,3.4862287185278364
4.929999999999917,3.92,3.4959723694855027
4.934999999999917,2.75,3.497527769594059
4.939999999999917,2.75,3.4933876377184014
4.944999999999917,3.74,3.4858935405238447
4.949999999999917,3.74,3.4763007345913013
4.954999999999917,3.78,3.4634427934492673
4.9599999999999165,3.78,3.4472752540103015
4.964999999999916,2.42,3.432232192921771
4.969999999999916,2.42,3.4219944928033983
4.974999999999916,3.84,3.4162726522166778
4.979999999999916,3.84,3.411067017043989
4.984999999999916,3.35,3.4043711786663953
4.989999999999916,3.35,3.4006482277096866
4.994999999999916,2.98,3.4028987055204682
4.999999999999916,2.98,3.4069891227639615
5.0049999999999155,3.7,3.4087046523481446
5.009999999999915,3.7,3.408320395073512
5.014999999999915,3.36,3.4112223217144897
5.019999999999915,3.36,3.4236032653358484
5.024999999999915,3.78,3.443033680982879
5.029999999999915,3.78,3.460544968844068
5.034999999999915,2.67,3.4710710886926166
5.039999999999915,2.67,3.4749645575994
5.044999999999915,3.68,3.473165741633348
5.049999999999915,3.68,3.4695921566610304
5.0549999999999145,3.91,3.4712312314938365
5.059999999999914,3.91,3.479392579467325
5.064999999999914,2.39,3.4878434456258027
5.069999999999914,2.39,3.492019544680551
5.074999999999914,3.84,3.492869595701237
5.079999999999914,3.84,3.491185096534173
5.084999999999914,3.3,3.4884006259019107
5.089999999999914,3.3,3.489761471997017
5.094999999999914,3.78,3.4981228576654906
5.0999999999999135,3.78,3.510213878028243
5.104999999999913,2.83,3.522007764472822
5.109999999999913,2.83,3.5306102422195766
5.114999999999913,3.85,3.53448185045293
5.119999999999913,3.85,3.5364736308341405
5.124999999999913,3.92,3.540379433095686
5.129999999999913,3.92,3.5446132527627676
5.134999999999913,2.53,3.542141947535163
5.139999999999913,2.53,3.529276231541331
5.1449999999999125,4.07,3.5092387281044783
5.149999999999912,4.07,3.485870912751873
5.154999999999912,3.35,3.463338828173279
5.159999999999912,3.35,3.447564159383805
5.164999999999912,3.5,3.44008163892564
5.169999999999912,3.5,3.4362022996993438
5.174999999999912,2.63,3.4319224806770197
5.179999999999912,2.63,3.4259999137655304
5.184999999999912,3.71,3.419234354020146
5.189999999999912,3.71,3.4154510471961075
5.1949999999999115,3.84,3.4169575776656345
5.199999999999911,3.84,3.422159467002421
5.204999999999911,2.36,3.4290758358604294
5.209999999999911,2.36,3.4359761907023376
5.214999999999911,3.85,3.4398484491097188
5.219999999999911,3.85,3.437726029438359
5.224999999999911,3.36,3.430585503454605
5.229999999999911,3.36,3.4249579281833853
5.234999999999911,3.17,3.425378144509764
5.2399999999999105,3.17,3.428161715132213
5.24499999999991,3.57,3.4290462277697675
5.24999999999991,3.57,3.427993150111164
5.25499999999991,3.38,3.4283526701283016
5.25999999999991,3.38,3.433599291893893
5.26499999999991,3.84,3.4404610593490204
5.26999999999991,3.84,3.4426747687878194
5.27499999999991,2.54,3.439465233682773
5.27999999999991,2.54,3.4328731686192366
5.2849999999999095,3.8,3.4235231179394554
5.289999999999909,3.8,3.4134165890427415
5.294999999999909,3.58,3.405118393889226
5.299999999999909,3.58,3.399325061749125
5.304999999999909,2.71,3.3972397398636742
5.309999999999909,2.71,3.4003650619986256
5.314999999999909,3.79,3.408235107477236
5.319999999999909,3.79,3.4172977253076477
5.324999999999909,3.25,3.426267086504854
5.329999999999909,3.25,3.4394911039254024
5.3349999999999085,3.37,3.4581434110468967
5.339999999999908,3.37,3.4759009426137943
5.344999999999908,3.65,3.4873175280483397
5.349999999999908,3.65,3.492661452823093
5.354999999999908,3.54,3.497569985712119
5.359999999999908,3.54,3.5080537328433077
5.364999999999908,3.84,3.5212068696472985
5.369999999999908,3.84,3.5284999731520754
5.374999999999908,2.67,3.5272417480656904
5.3799999999999075,2.67,3.5211217635322316
5.384999999999907,3.71,3.513654098506085
5.389999999999907,3.71,3.506028809335754
5.394999999999907,3.88,3.496525532715989
5.399999999999907,3.88,3.4848997988912584
5.404999999999907,2.33,3.474660755592718
5.409999999999907,2.33,3.467984083949442
5.414999999999907,3.86,3.4632905408238104
5.419999999999907,3.86,3.4562630955627025
5.424999999999907,3.44,3.444910249023839
5.4299999999999065,3.44,3.4341588115510175
5.434999999999906,3.01,3.429429728085125
5.439999999999906,3.01,3.4295173846663274
5.444999999999906,3.64,3.4309364610973065
5.449999999999906,3.64,3.431667852677761
5.454999999999906,3.35,3.4344397257695123
5.459999999999906,3.35,3.445203829613003
5.464999999999906,3.72,3.4632474430735467
5.469999999999906,3.72,3.480481720366536
5.4749999999999055,3.13,3.4910817844062954
5.479999999999905,3.13,3.4952901743724936
5.484999999999905,3.61,3.4970413099534077
5.489999999999905,3.61,3.4997875065820234
5.494999999999905,3.95,3.500576902015391
5.499999999999905,3.95,3.4956166258370955
5.504999999999905,2.43,3.487669677968535
5.509999999999905,2.43,3.4812690753902116
5.514999999999905,3.77,3.477376965811309
5.5199999999999045,3.77,3.473636735946493
5.524999999999904,3.63,3.4686240506963464
5.529999999999904,3.63,3.464668445870633
5.534999999999904,2.7,3.462686393200041
5.539999999999904,2.7,3.4598348033986004
5.544999999999904,3.86,3.4546541118393472
5.549999999999904,3.86,3.447883658778657
5.554999999999904,3.39,3.443429401713185
5.559999999999904,3.39,3.4469504028376554
5.564999999999904,3.71,3.457701287452575
5.5699999999999035,3.71,3.4686683002022813
5.574999999999903,2.74,3.4752962803478873
5.579999999999903,2.74,3.476946384699178
5.584999999999903,3.7,3.4736391375891444
5.589999999999903,3.7,3.4681286554459585
5.594999999999903,3.86,3.463570553630708
5.599999999999903,3.86,3.460703817453223
5.604999999999903,2.38,3.460661111025933
5.609999999999903,2.38,3.464343162665952
5.6149999999999025,3.96,3.4703802171338056
5.619999999999902,3.96,3.4749579771388004
5.624999999999902,3.26,3.4765553658657056
5.629999999999902,3.26,3.4801049102871042
5.634999999999902,3.26,3.4904352717885088
5.639999999999902,3.26,3.5048314132423624
5.644999999999902,3.7,3.517444460582228
5.649999999999902,3.7,3.525910248180182
5.654999999999902,3.52,3.533848626586519
5.6599999999999016,3.52,3.5456459547519383
5.6649999999999014,4.01,3.5573907435999113
5.669999999999901,4.01,3.5613400350450104
5.674999999999901,2.42,3.555487912382873
5.679999999999901,2.42,3.5424250114914035
5.684999999999901,3.79,3.5241538951834506
5.689999999999901,3.79,3.504195375981654
5.694999999999901,3.74,3.4885445549212317
5.699999999999901,3.74,3.478876926007359
5.704999999999901,2.66,3.471352053855954
5.7099999999999005,2.66,3.4626016611050123
5.7149999999999,3.75,3.452510121943399
5.7199999999999,3.75,3.442476231740196
5.7249999999999,3.28,3.436887983813515
5.7299999999999,3.28,3.441161095259606
5.7349999999999,3.83,3.454192406540079
5.7399999999999,3.83,3.4692836389965978
5.7449999999999,2.62,3.480955953258452
5.7499999999999,2.62,3.4862888847436593
5.7549999999998995,3.75,3.4846246324749477
5.759999999999899,3.75,3.4802361566565194
5.764999999999899,3.94,3.4778157546487303
5.769999999999899,3.94,3.4774513162088345
5.774999999999899,2.45,3.4774763007554075
5.779999999999899,2.45,3.4779282242385
5.784999999999899,3.81,3.479139252467417
5.789999999999899,3.81,3.4783091004140547
5.794999999999899,3.34,3.4750159721992855
5.799999999999899,3.34,3.476182206601008
5.8049999999998985,3.36,3.4880644088112254
5.809999999999898,3.36,3.507805990521462
5.814999999999898,3.51,3.5271013268667724
5.819999999999898,3.51,3.5405738920907743
5.824999999999898,3.6,3.5516684767671167
5.829999999999898,3.6,3.5659248738567384
5.834999999999898,4.06,3.5799390186428885
5.839999999999898,4.06,3.5872272651286092
5.844999999999898,2.33,3.5881349537174088
5.8499999999998975,2.33,3.585677289172678
5.854999999999897,3.73,3.579313399567634
5.859999999999897,3.73,3.5680439380283815
5.864999999999897,3.86,3.552505929762779
5.869999999999897,3.86,3.5339933116206668
5.874999999999897,2.56,3.5128848759763303
5.879999999999897,2.56,3.4893492970026827
5.884999999999897,4.03,3.4660819362655926
5.889999999999897,4.03,3.4453635858520104
5.8949999999998965,3.3,3.4298417138475807
5.899999999999896,3.3,3.4233112835431267
5.904999999999896,3.4,3.4260536769326366
5.909999999999896,3.4,3.4338449208606074
5.914999999999896,2.93,3.4421100135804332
5.919999999999896,2.93,3.448331709387558
5.924999999999896,3.71,3.452466007675756
5.929999999999896,3.71,3.457921276171649
5.934999999999896,3.94,3.4672966863308883
5.939999999999896,3.94,3.478918779876126
5.9449999999998955,2.32,3.4887178815528053
5.949999999999895,2.32,3.4937958453126736
5.954999999999895,3.87,3.4926814314505887
5.959999999999895,3.87,3.4843602796433375
5.964999999999895,3.4,3.4702320673308655
5.969999999999895,3.4,3.4562860128156436
5.974999999999895,3.32,3.447671457207861
5.979999999999895,3.32,3.4424291923680834
5.984999999999895,3.35,3.437250886535861
5.9899999999998945,3.35,3.431524122487956
5.994999999999894,3.47,3.4288536990929233
5.999999999999894,3.47,3.4339313671659144
6.004999999999894,3.77,3.4438761303281344
6.009999999999894,3.77,3.451293969278246
6.014999999999894,2.76,3.453804796983302
6.019999999999894,2.76,3.453021180341323
6.024999999999894,3.77,3.449276731975231
6.029999999999894,3.77,3.4438066397919904
6.034999999999894,3.75,3.4401492124982287
6.0399999999998935,3.75,3.4403184936861244
6.044999999999893,2.52,3.441782567958185
6.049999999999893,2.52,3.4411238919702045
6.054999999999893,3.79,3.438355348902316
6.059999999999893,3.79,3.433822636874711
6.064999999999893,3.25,3.4295820061761684
6.069999999999893,3.25,3.432041498217607
6.074999999999893,3.67,3.4442303213989027
6.079999999999893,3.67,3.461014632723293
6.0849999999998925,3.03,3.475364934937179
6.089999999999892,3.03,3.4833190192992505
6.094999999999892,3.69,3.484628748940373
6.099999999999892,3.69,3.4832931478286016
6.104999999999892,3.93,3.4828185724169383
6.109999999999892,3.93,3.4829735152926724
6.114999999999892,2.35,3.4830007348728795
6.119999999999892,2.35,3.4838064300436726
6.124999999999892,3.8,3.4870174829530134
6.1299999999998915,3.8,3.4908668710037416
6.134999999999891,3.33,3.4928176538557834
6.139999999999891,3.33,3.496151537934157
6.144999999999891,3.32,3.50554853365278
6.149999999999891,3.32,3.5190408982979693
6.154999999999891,3.61,3.5312461559371022
6.159999999999891,3.61,3.539023824818907
6.164999999999891,3.8,3.5420420959293617
6.169999999999891,3.8,3.5427142342770335
6.174999999999891,3.72,3.5424060232316696
6.1799999999998905,3.72,3.5395037176182766
6.18499999999989,2.29,3.5326506241445035
6.18999999999989,2.29,3.5213459859869762
6.19499999999989,3.85,3.5056707058672285
6.19999999999989,3.85,3.4885135222215458
6.20499999999989,3.31,3.4757869888842126
6.20999999999989,3.31,3.471490366732087
6.21499999999989,3.3,3.4750661087742136
6.21999999999989,3.3,3.481093111692141
6.2249999999998895,3.64,3.4838089324817267
6.229999999999889,3.64,3.4831209265987964
6.234999999999889,3.45,3.4836693657553215
6.239999999999889,3.45,3.4888677416376517
6.244999999999889,3.88,3.494703411395372
6.249999999999889,3.88,3.4949221517097486
6.254999999999889,2.42,3.489009050555279
6.259999999999889,2.42,3.479497966815748
6.264999999999889,3.75,3.4678295201308353
6.2699999999998886,3.75,3.4563691635605527
6.2749999999998884,3.64,3.4485349913567216
6.279999999999888,3.64,3.445090391328183
6.284999999999888,2.82,3.4443640129935367
6.289999999999888,2.82,3.4450615418892157
6.294999999999888,3.79,3.4465076848170457
6.299999999999888,3.79,3.4470575843469327
6.304999999999888,3.34,3.4479022173658556
6.309999999999888,3.34,3.4543735423943764
6.314999999999888,3.58,3.468008135302766
6.3199999999998875,3.58,3.4834291585885455
6.324999999999887,3.26,3.4952301630099156
6.329999999999887,3.26,3.50213366047853
6.334999999999887,3.6,3.5062935198168157
6.339999999999887,3.6,3.510456592211723
6.344999999999887,3.87,3.5123239597108307
6.349999999999887,3.87,3.508548383026353
6.354999999999887,2.25,3.5007291277935764
6.359999999999887,2.25,3.4922661968446995
6.3649999999998865,3.82,3.4846189986886205
6.369999999999886,3.82,3.477330671583534
6.374999999999886,3.54,3.4709720312247727
6.379999999999886,3.54,3.4681741383986378
6.384999999999886,2.91,3.470003589541862
6.389999999999886,2.91,3.4735939998438625
6.394999999999886,3.68,3.4754847748593223
6.399999999999886,3.68,3.475511634687037
6.404999999999886,3.44,3.478219292960671
6.409999999999886,3.44,3.4878341303261853
6.4149999999998855,3.94,3.501226424711417
6.419999999999885,3.94,3.5121249300194233
6.424999999999885,2.41,3.5176633399674606
6.429999999999885,2.41,3.516396828949219
6.434999999999885,3.75,3.5074953746357114
6.439999999999885,3.75,3.4953605110699373
6.444999999999885,3.77,3.487167303671101
6.449999999999885,3.77,3.484450714520078
6.454999999999885,2.89,3.4829666887142117
6.4599999999998845,2.89,3.4788418726791415
6.464999999999884,3.71,3.471294380881316
6.469999999999884,3.71,3.461274266940274
6.474999999999884,3.37,3.4532610300871296
6.479999999999884,3.37,3.4530119079618613
6.484999999999884,3.77,3.4595584181275387
6.489999999999884,3.77,3.4671138399298593
6.494999999999884,2.75,3.4726780240435113
6.499999999999884,2.75,3.4750247852376073
6.5049999999998835,3.71,3.4733610123612277
6.509999999999883,3.71,3.471153745449431
6.514999999999883,3.86,3.4733940354793584
6.519999999999883,3.86,3.4797710794032723
6.524999999999883,2.53,3.4843693100743653
6.529999999999883,2.53,3.4832775563012457
6.534999999999883,3.89,3.4775961413818464
6.539999999999883,3.89,3.468525840760679
6.544999999999883,3.37,3.4584686330848537
6.549999999999883,3.37,3.4533688052993075
6.5549999999998825,3.61,3.4554178665622
6.559999999999882,3.61,3.4597399660171204
6.564999999999882,2.89,3.4609504446464934
6.569999999999882,2.89,3.456804507637443
6.574999999999882,3.68,3.4491092009053714
6.579999999999882,3.68,3.4423601324737048
6.584999999999882,3.88,3.4370537846970963
6.589999999999882,3.88,3.4309303192742098
6.594999999999882,2.37,3.4248658074141116
6.5999999999998815,2.37,3.4205380835037054
6.604999999999881,3.76,3.4169338873117763
6.609999999999881,3.76,3.411123512267181
6.614999999999881,3.41,3.4025128288957656
6.619999999999881,3.41,3.396052527822534
6.624999999999881,2.9,3.3960444405692667
6.629999999999881,2.9,3.4005748157007365
6.634999999999881,3.7,3.4073768296391305
6.639999999999881,3.7,3.41624466398419
6.644999999999881,3.36,3.430411768454494
6.6499999999998805,3.36,3.4554829170652526
6.65499999999988,3.72,3.491436187484015
6.65999999999988,3.72,3.5308792922253875
6.66499999999988,2.96,3.5653813595166692
6.66999999999988,2.96,3.590110815787398
6.67499999999988,3.84,3.603208170753669
6.67999999999988,3.84,3.6073339065997816
6.68499999999988,4.09,3.606218731420698
6.68999999999988,4.09,3.6023415377487455
6.6949999999998795,2.16,3.5982979747584594
6.699999999999879,2.16,3.5951753455929607
6.704999999999879,3.86,3.590919555333747
6.709999999999879,3.86,3.5802971144509868
6.714999999999879,3.4,3.5603520888361095
6.719999999999879,3.4,3.536344091481173
6.724999999999879,3.22,3.5164200786916284
6.729999999999879,3.22,3.5016713922355596
6.734999999999879,3.68,3.4895459671106637
6.7399999999998785,3.68,3.4797642872721295
6.744999999999878,3.43,3.4753415404110366
6.749999999999878,3.43,3.4781701011036783
6.754999999999878,3.84,3.4828279807603164
6.759999999999878,3.84,3.4820690614423606
6.764999999999878,2.46,3.4755653607493846
6.769999999999878,2.46,3.466716592809481
6.774999999999878,3.76,3.457074875295654
6.779999999999878,3.76,3.448192666817303
6.784999999999878,3.66,3.441225610564915
6.7899999999998775,3.66,3.4352626479868738
6.794999999999877,2.52,3.4286612872508666
6.799999999999877,2.52,3.4210744315406467
6.804999999999877,3.95,3.4130942291242925
6.809999999999877,3.95,3.4040652876238306
6.814999999999877,3.32,3.3958301717120536
6.819999999999877,3.32,3.394545633805239
6.824999999999877,3.31,3.402310809249948
6.829999999999877,3.31,3.4130488806254373
6.8349999999998765,3.23,3.4210911381161417
6.839999999999876,3.23,3.4254938085370723
6.844999999999876,3.47,3.426103709762444
6.849999999999876,3.47,3.4250886789245474
6.854999999999876,3.98,3.426615621404979
6.859999999999876,3.98,3.430613468170262
6.864999999999876,2.33,3.4315292430211493
6.869999999999876,2.33,3.425752438468325
6.874999999999876,3.89,3.4153442434892343
6.8799999999998755,3.89,3.403660600516168
6.884999999999875,3.17,3.393149812374937
6.889999999999875,3.17,3.3861298369813855
6.894999999999875,3.42,3.384040443416867
6.899999999999875,3.42,3.386220565661587
6.904999999999875,3.01,3.3911330397024635
6.909999999999875,3.01,3.3969610372096892
6.914999999999875,3.66,3.4034688621729297
6.919999999999875,3.66,3.412778582321887
6.924999999999875,3.77,3.4241139145162705
6.9299999999998745,3.77,3.4337128037200078
6.934999999999874,2.41,3.4398536108364657
6.939999999999874,2.41,3.4429679954624235
6.944999999999874,3.94,3.442915420357323
6.949999999999874,3.94,3.439050134966395
6.954999999999874,3.39,3.4330920978875845
6.959999999999874,3.39,3.429724096588864
6.964999999999874,3.13,3.4306412347048747
6.969999999999874,3.13,3.4311914851944114
6.9749999999998735,3.58,3.427749060856636
6.979999999999873,3.58,3.4207473318827346
6.984999999999873,3.36,3.412456091148656
6.989999999999873,3.36,3.4064718021707727
6.994999999999873,3.83,3.403249401218681
6.999999999999873,3.83,3.3997291774830045
7.004999999999873,2.6,3.3954831396655205
7.009999999999873,2.6,3.391071293553335
7.014999999999873,3.75,3.3857141214351145
7.019999999999873,3.75,3.381295762543711
7.0249999999998725,3.31,3.3819152328492326
7.029999999999872,3.31,3.3877926996715004
7.034999999999872,3.01,3.3945188779036846
7.039999999999872,3.01,3.3986138177390743
7.044999999999872,3.85,3.400105371092892
7.049999999999872,3.85,3.400595101274568
7.054999999999872,3.3,3.4045498700516226
7.059999999999872,3.3,3.4167925153241323
7.064999999999872,3.72,3.433321676592888
7.0699999999998715,3.72,3.4444760177081046
7.074999999999871,2.6,3.445739970597109
7.079999999999871,2.6,3.4387218605157774
7.084999999999871,3.68,3.4266837829856094
7.089999999999871,3.68,3.4149561546371086
7.094999999999871,3.89,3.40842687994902
7.099999999999871,3.89,3.4065186646814403
7.104999999999871,2.45,3.4051257730259783
7.109999999999871,2.45,3.4021852525622047
7.1149999999998705,3.7,3.39785564752663
7.11999999999987,3.7,3.39093271344107
7.12499999999987,3.28,3.3829270196126537
7.12999999999987,3.28,3.3814360553230336
7.13499999999987,3.35,3.3906259845594637
7.13999999999987,3.35,3.4050943826851188
7.14499999999987,3.22,3.4186450983430907
7.14999999999987,3.22,3.4277234813994273
7.15499999999987,3.56,3.429813825015118
7.15999999999987,3.56,3.426290899108821
7.1649999999998695,4.09,3.4172743000702344
7.169999999999869,4.09,3.400973780985005
7.174999999999869,2.64,3.3810727119071307
7.179999999999869,2.64,3.3632108785688
7.184999999999869,3.86,3.350111716509995
7.189999999999869,3.86,3.3403068086484256
7.194999999999869,3.1,3.3282920655753907
7.199999999999869,3.1,3.313042282107663
7.204999999999869,2.45,3.3016466664063766
7.2099999999998685,2.45,3.299604767869788
7.214999999999868,3.88,3.306218723740037
7.219999999999868,3.88,3.3167290358858943
7.224999999999868,3.44,3.3289427249554566
7.229999999999868,3.44,3.3472942782384743
7.234999999999868,3.03,3.371792173025345
7.239999999999868,3.03,3.3919944721781623
7.244999999999868,3.72,3.3998040647456875
7.249999999999868,3.72,3.398108321238677
7.2549999999998676,3.26,3.3956234769716978
7.2599999999998674,3.26,3.399809195383993
7.264999999999867,3.65,3.4097243820692484
7.269999999999867,3.65,3.417745088751561
7.274999999999867,2.89,3.420261691740385
7.279999999999867,2.89,3.418895249159649
7.284999999999867,3.65,3.4162613079412623
7.289999999999867,3.65,3.414628391319832
7.294999999999867,3.79,3.4117112839467025
7.299999999999867,3.79,3.404427718164681
7.3049999999998665,2.37,3.396165212550182
7.309999999999866,2.37,3.3917692903421903
7.314999999999866,3.81,3.391066340741112
7.319999999999866,3.81,3.3900399394264693
7.324999999999866,3.38,3.3862811817351726
7.329999999999866,3.38,3.3828036153457326
7.334999999999866,2.66,3.383256547150013
7.339999999999866,2.66,3.386580937000584
7.344999999999866,4.0,3.390847941544688
7.3499999999998655,4.0,3.394946241503816
7.354999999999865,3.26,3.4007995566518665
7.359999999999865,3.26,3.41402701348893
7.364999999999865,3.58,3.434851545443655
7.369999999999865,3.58,3.454531363114934
7.374999999999865,3.16,3.4654991035913953
7.379999999999865,3.16,3.4678833942810017
7.384999999999865,3.57,3.46591940039828
7.389999999999865,3.57,3.4646580186698546
7.394999999999865,3.92,3.465658574961268
7.3999999999998645,3.92,3.4663293253792884
7.404999999999864,2.39,3.4643917223536946
7.409999999999864,2.39,3.45988633665618
7.414999999999864,3.81,3.4531968328664426
7.419999999999864,3.81,3.4437023029017566
7.424999999999864,3.41,3.4325781784726077
7.429999999999864,3.41,3.424083700845795
7.434999999999864,3.21,3.420367936447095
7.439999999999864,3.21,3.418654649356009
7.4449999999998635,3.47,3.41597157470988
7.449999999999863,3.47,3.4119838941288285
7.454999999999863,3.34,3.410930515621267
7.459999999999863,3.34,3.417660681923642
7.464999999999863,3.85,3.428890791987717
7.469999999999863,3.85,3.4371637444106393
7.474999999999863,2.6,3.440010128449656
7.479999999999863,2.6,3.438878267359995
7.484999999999863,3.72,3.434950595906
7.4899999999998625,3.72,3.4297073741698494
7.494999999999862,3.79,3.4232332528175307
7.499999999999862,3.79,3.415466099386105
7.504999999999862,2.43,3.4086084552443947
7.509999999999862,2.43,3.404922633302299
7.514999999999862,3.75,3.404807504894977
7.519999999999862,3.75,3.4050687981580174
7.524999999999862,3.33,3.4044496983874906
7.529999999999862,3.33,3.4085522337294667
7.534999999999862,3.14,3.4215471572686096
7.5399999999998615,3.14,3.4389577569933425
7.544999999999861,3.59,3.4539445555967783
7.549999999999861,3.59,3.4636736145662734
7.554999999999861,3.52,3.469901136141993
7.559999999999861,3.52,3.4759813675387727
7.564999999999861,3.91,3.4798480017664857
7.569999999999861,3.91,3.4771762839948654
7.574999999999861,2.31,3.4689314072691726
7.579999999999861,2.31,3.4576840560113893
7.5849999999998605,3.75,3.4440666206865935
7.58999999999986,3.75,3.429963171499761
7.59499999999986,3.48,3.418606193179517
7.59999999999986,3.48,3.4107181958089825
7.60499999999986,2.69,3.404647575144465
7.60999999999986,2.69,3.398954819306351
7.61499999999986,3.85,3.393730760290427
7.61999999999986,3.85,3.38937006154929
7.62499999999986,3.34,3.389066031668786
7.62999999999986,3.34,3.39818299034173
7.6349999999998595,3.55,3.414534871983381
7.639999999999859,3.55,3.4283932744740335
7.644999999999859,2.96,3.4339758512983107
7.649999999999859,2.96,3.430509907865252
7.654999999999859,3.62,3.416150944170012
7.659999999999859,3.62,3.3927588101270105
7.664999999999859,4.0,3.365454886243753
7.669999999999859,4.0,3.3384892987095123
7.674999999999859,2.58,3.317638501197208
7.6799999999998585,2.58,3.3057796923110137
7.684999999999858,3.83,3.300487439373142
7.689999999999858,3.83,3.2968934292862095
7.694999999999858,2.4,3.292373712590943
7.699999999999858,2.4,3.2897183879536382
7.704999999999858,3.1,3.2931781570166057
7.709999999999858,3.1,3.3037570481951377
7.714999999999858,3.71,3.3206837730037226
7.719999999999858,3.71,3.341982496936233
7.7249999999998575,3.39,3.3686626602330985
7.729999999999857,3.39,3.4053747773236642
7.734999999999857,3.77,3.4467841763176783
7.739999999999857,3.77,3.478190187787326
7.744999999999857,2.69,3.4933807996578654
7.749999999999857,2.69,3.4976375153739063
7.754999999999857,3.72,3.4959635330226138
7.759999999999857,3.72,3.491632300881515
7.764999999999857,3.97,3.4873265038360897
7.769999999999857,3.97,3.4840260354341472
7.7749999999998565,2.42,3.482666616553075
7.779999999999856,2.42,3.4836394533939727
7.784999999999856,3.89,3.485452471327244
7.789999999999856,3.89,3.484054887640196
7.794999999999856,3.31,3.4778798765477075
7.799999999999856,3.31,3.4724194927001326
7.804999999999856,3.28,3.472630783082017
7.809999999999856,3.28,3.4756584218064797
7.814999999999856,3.62,3.476644433582085
7.8199999999998555,3.62,3.473976091253271
7.824999999999855,3.48,3.4709397255656973
7.829999999999855,3.48,3.4723989155823145
7.834999999999855,3.88,3.475943895215041
7.839999999999855,3.88,3.474408977064176
7.844999999999855,2.61,3.4663650475417103
7.849999999999855,2.61,3.4557514097156914
7.854999999999855,3.7,3.44562501037824
7.859999999999855,3.7,3.4373156158217517
7.8649999999998546,3.63,3.430230423562793
7.8699999999998544,3.63,3.4235392558826345
7.874999999999854,2.37,3.4181532187656827
7.879999999999854,2.37,3.415418722620121
7.884999999999854,3.89,3.415569594451125
7.889999999999854,3.89,3.4160127189096627
7.894999999999854,3.39,3.415608755867003
7.899999999999854,3.39,3.41901133395581
7.904999999999854,3.24,3.428422624189539
7.909999999999854,3.24,3.437860457440705
7.9149999999998535,3.43,3.4416703285015475
7.919999999999853,3.43,3.440535677810756
7.924999999999853,3.49,3.4400746556414643
7.929999999999853,3.49,3.445535717375058
7.934999999999853,3.84,3.4541656090766426
7.939999999999853,3.84,3.45894807620194
7.944999999999853,2.57,3.4581227438793607
7.949999999999853,2.57,3.4537696012248285
7.954999999999853,3.79,3.446791437380868
7.9599999999998525,3.79,3.4388746627734608
7.964999999999852,3.66,3.433076897828388
7.969999999999852,3.66,3.4308778272401446
7.974999999999852,2.47,3.4310411738357107
7.979999999999852,2.47,3.431652708040475
7.984999999999852,3.8,3.432296304771517
7.989999999999852,3.8,3.4320028477247475
7.994999999999852,3.3,3.4325129959932674
7.999999999999852,3.3,3.440956836574741
8.004999999999852,3.59,3.460931516298253
8.009999999999852,3.59,3.486187973132202
8.014999999999853,3.18,3.506891449652191
8.019999999999854,3.18,3.5183985297402205
8.024999999999855,3.65,3.524772708699909
8.029999999999855,3.65,3.531994626561763
8.034999999999856,4.09,3.5380922705094533
8.039999999999857,4.09,3.5384804692614193
8.044999999999858,2.31,3.5343277766105716
8.049999999999859,2.31,3.528910282817578
8.05499999999986,3.71,3.5221790805535127
8.05999999999986,3.71,3.511579433894757
8.064999999999861,3.72,3.496096357900987
8.069999999999862,3.72,3.4791558593113683
8.074999999999863,2.68,3.464572008995424
8.079999999999863,2.68,3.452213810656002
8.084999999999864,3.82,3.441359878866206
8.089999999999865,3.82,3.4315379623304643
8.094999999999866,3.32,3.4253692870994943
8.099999999999866,3.32,3.4282748679424278
8.104999999999867,3.61,3.4408379305806562
8.109999999999868,3.61,3.4574663133670382
8.114999999999869,2.97,3.4719182595822415
8.11999999999987,2.97,3.481626788062484
8.12499999999987,3.63,3.4900372534993265
8.129999999999871,3.63,3.5019166568540943
8.134999999999872,4.0,3.514852520787097
8.139999999999873,4.0,3.5243747134553454
8.144999999999873,2.33,3.5318872699551687
8.149999999999874,2.33,3.5401975128805523
8.154999999999875,3.79,3.5470855875568423
8.159999999999876,3.79,3.5486872928859428
8.164999999999877,3.78,3.545944891543521
8.169999999999877,3.78,3.5447310131296126
8.174999999999878,2.71,3.549368973697231
8.179999999999879,2.71,3.558294356003185
8.18499999999988,3.98,3.567772933450963
8.18999999999988,3.98,3.5740060145507764
8.194999999999881,3.26,3.5770532657920966
8.199999999999882,3.26,3.582033065268723
8.204999999999883,4.09,3.591590604308727
8.209999999999884,4.09,3.60152973962469
8.214999999999884,3.35,3.6052334265788826
8.219999999999885,3.35,3.599959000118348
8.224999999999886,3.63,3.5906985074374997
8.229999999999887,3.63,3.5839523821006067
8.234999999999888,3.9,3.576928254386539
8.239999999999888,3.9,3.5630167801834323
8.244999999999889,2.38,3.5436572604370977
8.24999999999989,2.38,3.526173516686682
8.25499999999989,3.7,3.5142269042839054
8.259999999999891,3.7,3.505313618997652
8.264999999999892,3.8,3.4960758277139092
8.269999999999893,3.8,3.4872225061928224
8.274999999999894,2.49,3.479418619929572
8.279999999999895,2.49,3.4710404952961578
8.284999999999895,3.87,3.461281468824997
8.289999999999896,3.87,3.450149906164434
8.294999999999897,3.38,3.4407959136933157
8.299999999999898,3.38,3.439458440463171
8.304999999999898,3.52,3.448253472771536
8.3099999999999,3.52,3.462453979933419
8.3149999999999,3.0,3.4760432951721207
8.3199999999999,3.0,3.486223456418588
8.324999999999902,3.61,3.4946783859904387
8.329999999999902,3.61,3.5046097430598397
8.334999999999903,4.07,3.514487653627661
8.339999999999904,4.07,3.521377744049094
8.344999999999905,2.34,3.5257444767315786
8.349999999999905,2.34,3.528499571316678
8.354999999999906,3.88,3.5279210543028996
8.359999999999907,3.88,3.5210517423686514
8.364999999999908,3.63,3.5069663296535696
8.369999999999909,3.63,3.48966255765974
8.37499999999991,2.98,3.473890754274954
8.37999999999991,2.98,3.4600914411810795
8.384999999999911,3.65,3.448016979409866
8.389999999999912,3.65,3.43761822217255
8.394999999999913,3.31,3.432006450529472
8.399999999999913,3.31,3.4366935446786653
8.404999999999914,3.65,3.4508293919957618
8.409999999999915,3.65,3.4668859073792855
8.414999999999916,3.03,3.478816317755104
8.419999999999916,3.03,3.4850099976904385
8.424999999999917,3.7,3.4870650575373183
8.429999999999918,3.7,3.4879422044174295
8.434999999999919,3.98,3.4858240192123637
8.43999999999992,3.98,3.4780086717251786
8.44499999999992,2.36,3.4677498190117633
8.449999999999921,2.36,3.4591533432473995
8.454999999999922,3.76,3.4518461037845887
8.459999999999923,3.76,3.442291107937495
8.464999999999923,3.48,3.4287477510197637
8.469999999999924,3.48,3.415204344969329
8.474999999999925,2.67,3.406704050205474
8.479999999999926,2.67,3.4032481136828703
8.484999999999927,3.89,3.40314651565154
8.489999999999927,3.89,3.404660754961493
8.494999999999928,3.28,3.409095474619454
8.499999999999929,3.28,3.421696243591336
8.50499999999993,3.58,3.4426652802318136
8.50999999999993,3.58,3.464113771370751
8.514999999999931,3.16,3.479046603644186
8.519999999999932,3.16,3.4866149088474105
8.524999999999933,3.6,3.4892798596934367
8.529999999999934,3.6,3.4902274973940823
8.534999999999934,3.99,3.488428263099235
8.539999999999935,3.99,3.4814413901040733
8.544999999999936,2.34,3.471967947934143
8.549999999999937,2.34,3.4637104960441056
8.554999999999938,3.86,3.4563133387253577
8.559999999999938,3.86,3.446877377680986
8.564999999999939,3.41,3.433995553853468
8.56999999999994,3.41,3.420279973427534
8.57499999999994,2.81,3.408941005820501
8.579999999999941,2.81,3.4001960570795156
8.584999999999942,3.84,3.3941499894920923
8.589999999999943,3.84,3.3910657748017132
8.594999999999944,3.26,3.3940595961634115
8.599999999999945,3.26,3.408761120025183
8.604999999999945,3.59,3.434368673833157
8.609999999999946,3.59,3.462163711722197
8.614999999999947,3.0,3.484690760191715
8.619999999999948,3.0,3.500327877318241
8.624999999999948,3.68,3.5098492495209643
8.62999999999995,3.68,3.517070158237017
8.63499999999995,4.07,3.527149647091359
8.63999999999995,4.07,3.5402074338610277
8.644999999999952,2.33,3.5511219604005317
8.649999999999952,2.33,3.5566103965159743
8.654999999999953,3.87,3.556403953804779
8.659999999999954,3.87,3.549421418116816
8.664999999999955,3.41,3.536413355335593
8.669999999999956,3.41,3.523539820506268
8.674999999999956,3.59,3.5169916371556433
8.679999999999957,3.59,3.5158861311190277
8.684999999999958,3.25,3.5151819918233507
8.689999999999959,3.25,3.5114417721253792
8.69499999999996,3.52,3.506459121691602
8.69999999999996,3.52,3.5037618106067403
8.704999999999961,4.07,3.501936605252033
8.709999999999962,4.07,3.4978716462630777
8.714999999999963,2.4,3.4918028824571605
8.719999999999963,2.4,3.4852992567490677
8.724999999999964,3.75,3.4786080686445544
8.729999999999965,3.75,3.4706645459808665
8.734999999999966,3.57,3.4615491985983473
8.739999999999966,3.57,3.4541020604320085
8.744999999999967,2.99,3.449757630502516
8.749999999999968,2.99,3.4464052926535103
8.754999999999969,3.63,3.4422749338558636
8.75999999999997,3.63,3.4372644388296623
8.76499999999997,3.42,3.4345867585079204
8.769999999999971,3.42,3.4384890154420655
8.774999999999972,3.78,3.4464128754276366
8.779999999999973,3.78,3.4519932093960914
8.784999999999973,2.6,3.4533934729998355
8.789999999999974,2.6,3.4513363431492525
8.794999999999975,3.76,3.445904096314436
8.799999999999976,3.76,3.440139331902979
8.804999999999977,3.7,3.438705938820939
8.809999999999977,3.7,3.442140750579735
8.814999999999978,2.51,3.4469762843752907
8.819999999999979,2.51,3.450497104261138
8.82499999999998,3.87,3.4522450080167055
8.82999999999998,3.87,3.451343476848595
8.834999999999981,3.32,3.4494905733293377
8.839999999999982,3.32,3.4533974643065224
8.844999999999983,3.6,3.4667346308299476
8.849999999999984,3.6,3.4845537257950188
8.854999999999984,3.18,3.499391940158744
8.859999999999985,3.18,3.508376038387346
8.864999999999986,3.6,3.515741935362185
8.869999999999987,3.6,3.5266365959302095
8.874999999999988,3.97,3.53836442953043
8.879999999999988,3.97,3.5457716151512475
8.88499999999999,2.31,3.5486604504993227
8.88999999999999,2.31,3.549296948437261
8.89499999999999,3.78,3.548071978833199
8.899999999999991,3.78,3.5434156313891387
8.904999999999992,3.79,3.5349783453871555
8.909999999999993,3.79,3.5258110797746753
8.914999999999994,2.97,3.5181266184183464
8.919999999999995,2.97,3.510313189628784
8.924999999999995,3.72,3.501230124073665
8.929999999999996,3.72,3.4914322092321797
8.934999999999997,3.39,3.4852179626652346
8.939999999999998,3.39,3.4883291023852667
8.944999999999999,3.73,3.499898203141209
8.95,3.73,3.513569391859898
8.955,2.98,3.5250988227355493
8.96,2.98,3.532419320637135
8.965000000000002,3.73,3.5331854991763083
8.970000000000002,3.73,3.5283924221862
8.975000000000003,4.05,3.5199244075702
8.980000000000004,4.05,3.509024404057901
8.985000000000005,2.41,3.4985039197107466
8.990000000000006,2.41,3.490129167237166
8.995000000000006,3.95,3.4824667049847964
9.000000000000007,3.95,3.471608807791231
9.005000000000008,3.24,3.4559652773280587
9.010000000000009,3.24,3.4405060819612623
9.01500000000001,3.13,3.430960383109185
9.02000000000001,3.13,3.426940495556087
9.025000000000011,3.67,3.425824476282171
9.030000000000012,3.67,3.4257494921061302
9.035000000000013,3.34,3.4284623800054828
9.040000000000013,3.34,3.438490696482836
9.045000000000014,3.8,3.45368888202798
9.050000000000015,3.8,3.465339931241779
9.055000000000016,2.91,3.4692983326021607
9.060000000000016,2.91,3.4684862967294863
9.065000000000017,3.69,3.466601660248004
9.070000000000018,3.69,3.46534964641525
9.075000000000019,3.76,3.461954922671728
9.08000000000002,3.76,3.4540877332064825
9.08500000000002,2.37,3.446483747981406
9.090000000000021,2.37,3.445194575053989
9.095000000000022,3.88,3.451517656650025
9.100000000000023,3.88,3.461065457200721
9.105000000000024,3.44,3.4683102757688213
9.110000000000024,3.44,3.474237248500219
9.115000000000025,2.8,3.4828414622902817
9.120000000000026,2.8,3.493343847655553
9.125000000000027,4.09,3.5031337614064944
9.130000000000027,4.09,3.51098017526654
9.135000000000028,3.54,3.5195852355661175
9.140000000000029,3.54,3.535028704436853
9.14500000000003,3.55,3.557104639340885
9.15000000000003,3.55,3.5757646691301295
9.155000000000031,3.38,3.581932099092285
9.160000000000032,3.38,3.5764993845192903
9.165000000000033,3.62,3.5682955740811395
9.170000000000034,3.62,3.5648385248847783
9.175000000000034,4.03,3.5637172998489492
9.180000000000035,4.03,3.5589117828338104
9.185000000000036,2.39,3.550020473534986
9.190000000000037,2.39,3.5393920638275778
9.195000000000038,3.73,3.5275198766729625
9.200000000000038,3.73,3.5138758155462
9.20500000000004,3.79,3.498238758446512
9.21000000000004,3.79,3.4830286021117574
9.21500000000004,2.65,3.47224024412307
9.220000000000041,2.65,3.4672596706897556
9.225000000000042,3.75,3.4668501716506346
9.230000000000043,3.75,3.4672421903132764
9.235000000000044,3.39,3.467042336156355
9.240000000000045,3.39,3.4705353166675836
9.245000000000045,3.47,3.4796728024211205
9.250000000000046,3.47,3.4896502388801593
9.255000000000047,3.48,3.495495015028141
9.260000000000048,3.48,3.496586352420133
9.265000000000049,3.58,3.498126245123953
9.27000000000005,3.58,3.5059492224411866
9.27500000000005,3.79,3.516494427292059
9.28000000000005,3.79,3.521728984852382
9.285000000000052,2.58,3.519485858716555
9.290000000000052,2.58,3.5123262966830593
9.295000000000053,3.76,3.5021163012633303
9.300000000000054,3.76,3.4908923169231625
9.305000000000055,3.91,3.482061815635366
9.310000000000056,3.91,3.4778214352267014
9.315000000000056,2.43,3.4765464810617766
9.320000000000057,2.43,3.4747830048209
9.325000000000058,3.75,3.470708297482603
9.330000000000059,3.75,3.4631020504460266
9.33500000000006,3.31,3.4541124642359913
9.34000000000006,3.31,3.451547742089377
9.345000000000061,3.6,3.4607484529825885
9.350000000000062,3.6,3.477730734236825
9.355000000000063,3.12,3.493926227617833
9.360000000000063,3.12,3.503636607089589
9.365000000000064,3.65,3.5081230051992116
9.370000000000065,3.65,3.5116944672634953
9.375000000000066,4.09,3.5128743916842042
9.380000000000067,4.09,3.5084167133285256
9.385000000000067,2.33,3.50086512932344
9.390000000000068,2.33,3.4940573269898345
9.395000000000069,3.75,3.4875040471814653
9.40000000000007,3.75,3.477613517419186
9.40500000000007,3.57,3.4619300981724446
9.410000000000071,3.57,3.4439384514612574
9.415000000000072,2.62,3.430406071347175
9.420000000000073,2.62,3.4240046744331853
9.425000000000074,3.89,3.4238941817370394
9.430000000000074,3.89,3.4266969567552255
9.435000000000075,3.29,3.431187199974585
9.440000000000076,3.29,3.441326912956832
9.445000000000077,3.47,3.458138271027406
9.450000000000077,3.47,3.4751507352286963
9.455000000000078,3.41,3.486050445593039
9.460000000000079,3.41,3.490158365992621
9.46500000000008,3.57,3.4900832717553403
9.47000000000008,3.57,3.489407096354535
9.475000000000081,3.86,3.4882070222559274
9.480000000000082,3.86,3.4840592550501763
9.485000000000083,2.36,3.4776216263717177
9.490000000000084,2.36,3.470897181188995
9.495000000000084,3.82,3.4643278119427565
9.500000000000085,3.82,3.457939383387463
9.505000000000086,3.39,3.453184553924673
9.510000000000087,3.39,3.4519565402348413
9.515000000000088,3.09,3.453806527585558
9.520000000000088,3.09,3.4557588437796842
9.52500000000009,3.77,3.4555297480892575
9.53000000000009,3.77,3.4534724326852175
9.53500000000009,3.42,3.4546905827067063
9.540000000000092,3.42,3.465174456706618
9.545000000000092,3.74,3.4827072045797003
9.550000000000093,3.74,3.4988187582504255
9.555000000000094,2.8,3.5087398082562147
9.560000000000095,2.8,3.5141793801317838
9.565000000000095,3.68,3.520181098643654
9.570000000000096,3.68,3.529985043352985
9.575000000000097,3.97,3.5398191365006113
9.580000000000098,3.97,3.5452185986321227
9.585000000000099,2.34,3.547393857366939
9.5900000000001,2.34,3.5493788800424895
9.5950000000001,3.88,3.5512785992929325
9.600000000000101,3.88,3.5495971934099266
9.605000000000102,3.79,3.5402758691469383
9.610000000000102,3.79,3.525759729558941
9.615000000000103,2.59,3.511597449542371
9.620000000000104,2.59,3.498486871056846
9.625000000000105,3.81,3.4851194713143516
9.630000000000106,3.81,3.470146991968769
9.635000000000106,3.43,3.4557215904083485
9.640000000000107,3.43,3.4482996332206888
9.645000000000108,3.4,3.4500472355236544
9.650000000000109,3.4,3.455033765762502
9.65500000000011,3.32,3.4571879885961647
9.66000000000011,3.32,3.45564428161875
9.665000000000111,3.49,3.4556840575230483
9.670000000000112,3.49,3.4636239817142624
9.675000000000113,3.87,3.477475585729745
9.680000000000113,3.87,3.4904570592952915
9.685000000000114,2.63,3.500009373139054
9.690000000000115,2.63,3.506866249807621
9.695000000000116,3.74,3.5103958356231466
9.700000000000117,3.74,3.510239628605723
9.705000000000117,3.91,3.5070153742940287
9.710000000000118,3.91,3.5021438293238725
9.715000000000119,2.33,3.495616517368744
9.72000000000012,2.33,3.486565360140737
9.72500000000012,3.87,3.476123483771149
9.730000000000121,3.87,3.4639252217292285
9.735000000000122,3.35,3.4507125776967738
9.740000000000123,3.35,3.4427619406903966
9.745000000000124,3.41,3.4451273220622767
9.750000000000124,3.41,3.45514985779902
9.755000000000125,3.04,3.4668984166636023
9.760000000000126,3.04,3.4762108333483615
9.765000000000127,3.69,3.481645724198905
9.770000000000127,3.69,3.485063139656606
9.775000000000128,4.03,3.4876081829491
9.780000000000129,4.03,3.4889182269784818
9.78500000000013,2.3,3.489744806067594
9.79000000000013,2.3,3.4900836297468856
9.795000000000131,3.88,3.4878178298309215
9.800000000000132,3.88,3.480518375568729
9.805000000000133,3.35,3.468416604714675
9.810000000000134,3.35,3.456617047957202
9.815000000000135,3.08,3.4507229496258103
9.820000000000135,3.08,3.450122825535368
9.825000000000136,3.64,3.451519220163236
9.830000000000137,3.64,3.452858809259504
9.835000000000138,3.44,3.456908970379258
9.840000000000138,3.44,3.469257435957874
9.84500000000014,3.83,3.4885219856494007
9.85000000000014,3.83,3.506128606706514
9.85500000000014,2.96,3.516058550717319
9.860000000000142,2.96,3.518430551801111
9.865000000000142,3.68,3.5152063471823904
9.870000000000143,3.68,3.5092694342918462
9.875000000000144,3.9,3.5026930023844565
9.880000000000145,3.9,3.4958200218512783
9.885000000000145,2.3,3.4887168745116233
9.890000000000146,2.3,3.482170166997518
9.895000000000147,3.8,3.477471048269348
9.900000000000148,3.8,3.472568108798612
9.905000000000149,3.38,3.4649829504442033
9.91000000000015,3.38,3.458403280292512
9.91500000000015,3.31,3.4569499482187647
9.920000000000151,3.31,3.458067465676841
9.925000000000152,3.4,3.4574694184331847
9.930000000000152,3.4,3.4538001665017206
9.935000000000153,3.63,3.4477451624774837
9.940000000000154,3.63,3.441850286229065
9.945000000000155,3.73,3.437305474896181
9.950000000000156,3.73,3.432744797520971
9.955000000000156,2.39,3.4279222017038764
9.960000000000157,2.39,3.423025419385231
9.965000000000158,3.8,3.4218582539513
9.970000000000159,3.8,3.4217728496864277
9.97500000000016,3.23,3.4221372038057836
9.98000000000016,3.23,3.4225409446754393
9.985000000000161,3.2,3.4229751334088823
9.990000000000162,3.2,3.4237211261155087
9.995000000000163,3.69,3.4252632356496275
10.000000000000163,3.69,3.4281503293631417
